Time,Datapoint
2013-08-28 0:0:1.53,60.6061
2013-08-28 0:0:2.52,60.6061
2013-08-28 0:0:3.5099999999999998,61.2245
2013-08-28 0:0:4.4900000000000002,58.2524
2013-08-28 0:0:5.5199999999999996,55.5556
2013-08-28 0:0:6.5999999999999996,54.0541
2013-08-28 0:0:7.71,57.1429
2013-08-28 0:0:8.7599999999999998,60
2013-08-28 0:0:9.7599999999999998,61.8557
2013-08-28 0:0:10.73,59.4059
2013-08-28 0:0:11.74,57.1429
2013-08-28 0:0:12.789999999999999,60.6061
2013-08-28 0:0:13.779999999999999,62.5
2013-08-28 0:0:14.74,63.8298
2013-08-28 0:0:15.68,63.1579
2013-08-28 0:0:16.629999999999999,60
2013-08-28 0:0:17.629999999999999,63.1579
2013-08-28 0:0:18.579999999999998,63.1579
2013-08-28 0:0:19.530000000000001,64.5161
2013-08-28 0:0:20.460000000000001,58.8235
2013-08-28 0:0:21.48,57.1429
2013-08-28 0:0:22.530000000000001,62.5
2013-08-28 0:0:23.489999999999998,65.2174
2013-08-28 0:0:24.41,65.9341
2013-08-28 0:0:25.32,67.4157
2013-08-28 0:0:26.210000000000001,68.1818
2013-08-28 0:0:27.09,71.4286
2013-08-28 0:0:27.93,68.9655
2013-08-28 0:0:28.800000000000001,65.9341
2013-08-28 0:0:29.710000000000001,65.2174
2013-08-28 0:0:30.629999999999999,66.6667
2013-08-28 0:0:31.530000000000001,65.2174
2013-08-28 0:0:32.450000000000003,62.5
2013-08-28 0:0:33.409999999999997,62.5
2013-08-28 0:0:34.369999999999997,63.8298
2013-08-28 0:0:35.310000000000002,64.5161
2013-08-28 0:0:36.240000000000002,63.8298
2013-08-28 0:0:37.18,63.1579
2013-08-28 0:0:38.130000000000003,66.6667
2013-08-28 0:0:39.030000000000001,67.4157
2013-08-28 0:0:39.920000000000002,67.4157
2013-08-28 0:0:40.810000000000002,68.9655
2013-08-28 0:0:41.68,68.9655
2013-08-28 0:0:42.549999999999997,71.4286
2013-08-28 0:0:43.390000000000001,71.4286
2013-08-28 0:0:44.229999999999997,71.4286
2013-08-28 0:0:45.07,71.4286
2013-08-28 0:0:45.909999999999997,69.7674
2013-08-28 0:0:46.770000000000003,66.6667
2013-08-28 0:0:47.670000000000002,64.5161
2013-08-28 0:0:48.600000000000001,61.2245
2013-08-28 0:0:49.579999999999998,59.4059
2013-08-28 0:0:50.590000000000003,58.2524
2013-08-28 0:0:51.619999999999997,57.1429
2013-08-28 0:0:52.670000000000002,56.0748
2013-08-28 0:0:53.740000000000002,57.6923
2013-08-28 0:0:54.780000000000001,61.8557
2013-08-28 0:0:55.75,62.5
2013-08-28 0:0:56.710000000000001,61.8557
2013-08-28 0:0:57.68,59.4059
2013-08-28 0:0:58.689999999999998,58.8235
2013-08-28 0:0:59.710000000000001,59.4059
2013-08-28 0:1:0.71999999999999886,59.4059
2013-08-28 0:1:1.7299999999999969,61.8557
2013-08-28 0:1:2.7000000000000028,61.2245
2013-08-28 0:1:3.6799999999999997,58.8235
2013-08-28 0:1:4.7000000000000028,59.4059
2013-08-28 0:1:5.7099999999999937,60.6061
2013-08-28 0:1:6.7000000000000028,61.2245
2013-08-28 0:1:7.6800000000000068,58.8235
2013-08-28 0:1:8.7000000000000028,58.8235
2013-08-28 0:1:9.7199999999999989,59.4059
2013-08-28 0:1:10.730000000000004,61.2245
2013-08-28 0:1:11.709999999999994,61.8557
2013-08-28 0:1:12.680000000000007,63.8298
2013-08-28 0:1:13.620000000000005,63.8298
2013-08-28 0:1:14.560000000000002,60
2013-08-28 0:1:15.560000000000002,56.6038
2013-08-28 0:1:16.620000000000005,55.5556
2013-08-28 0:1:17.700000000000003,60
2013-08-28 0:1:18.700000000000003,61.2245
2013-08-28 0:1:19.680000000000007,60
2013-08-28 0:1:20.680000000000007,57.6923
2013-08-28 0:1:21.719999999999999,61.8557
2013-08-28 0:1:22.689999999999998,65.2174
2013-08-28 0:1:23.609999999999999,65.2174
2013-08-28 0:1:24.530000000000001,65.2174
2013-08-28 0:1:25.450000000000003,68.1818
2013-08-28 0:1:26.329999999999998,70.5882
2013-08-28 0:1:27.180000000000007,69.7674
2013-08-28 0:1:28.040000000000006,65.9341
2013-08-28 0:1:28.950000000000003,62.5
2013-08-28 0:1:29.909999999999997,56.6038
2013-08-28 0:1:30.969999999999999,54.5455
2013-08-28 0:1:32.069999999999993,57.1429
2013-08-28 0:1:33.120000000000005,58.8235
2013-08-28 0:1:34.140000000000001,60
2013-08-28 0:1:35.140000000000001,56.6038
2013-08-28 0:1:36.200000000000003,55.0459
2013-08-28 0:1:37.290000000000006,53.0973
2013-08-28 0:1:38.420000000000002,56.6038
2013-08-28 0:1:39.480000000000004,60
2013-08-28 0:1:40.480000000000004,57.6923
2013-08-28 0:1:41.519999999999996,57.1429
2013-08-28 0:1:42.569999999999993,57.6923
2013-08-28 0:1:43.609999999999999,60.6061
2013-08-28 0:1:44.599999999999994,61.8557
2013-08-28 0:1:45.569999999999993,58.2524
2013-08-28 0:1:46.599999999999994,57.6923
2013-08-28 0:1:47.640000000000001,56.6038
2013-08-28 0:1:48.700000000000003,58.8235
2013-08-28 0:1:49.719999999999999,60.6061
2013-08-28 0:1:50.709999999999994,63.1579
2013-08-28 0:1:51.659999999999997,59.4059
2013-08-28 0:1:52.670000000000002,56.0748
2013-08-28 0:1:53.739999999999995,48
2013-08-28 0:1:56.329999999999998,52.1739
2013-08-28 0:1:57.480000000000004,57.1429
2013-08-28 0:1:58.530000000000001,58.2524
2013-08-28 0:1:59.560000000000002,57.6923
2013-08-28 0:2:0.59999999999999432,60
2013-08-28 0:2:1.5999999999999943,63.8298
2013-08-28 0:2:2.5400000000000063,56.6038
2013-08-28 0:2:3.5999999999999943,61.2245
2013-08-28 0:2:4.5799999999999983,60.6061
2013-08-28 0:2:5.5699999999999932,68.9655
2013-08-28 0:2:6.4399999999999977,68.9655
2013-08-28 0:2:7.3100000000000023,68.9655
2013-08-28 0:2:8.1800000000000068,66.6667
2013-08-28 0:2:9.0800000000000125,66.6667
2013-08-28 0:2:9.9799999999999898,66.6667
2013-08-28 0:2:10.879999999999995,66.6667
2013-08-28 0:2:11.780000000000001,63.1579
2013-08-28 0:2:12.72999999999999,61.8557
2013-08-28 0:2:13.699999999999989,61.8557
2013-08-28 0:2:14.669999999999987,62.5
2013-08-28 0:2:15.629999999999995,62.5
2013-08-28 0:2:16.590000000000003,62.5
2013-08-28 0:2:17.550000000000011,64.5161
2013-08-28 0:2:18.47999999999999,65.2174
2013-08-28 0:2:19.400000000000006,62.5
2013-08-28 0:2:20.360000000000014,65.2174
2013-08-28 0:2:21.280000000000001,64.5161
2013-08-28 0:2:22.210000000000008,64.5161
2013-08-28 0:2:23.139999999999986,65.9341
2013-08-28 0:2:24.050000000000011,65.2174
2013-08-28 0:2:24.969999999999999,68.1818
2013-08-28 0:2:25.849999999999994,68.9655
2013-08-28 0:2:26.719999999999999,67.4157
2013-08-28 0:2:27.610000000000014,68.1818
2013-08-28 0:2:28.490000000000009,65.2174
2013-08-28 0:2:29.409999999999997,63.1579
2013-08-28 0:2:30.360000000000014,61.2245
2013-08-28 0:2:31.340000000000003,61.8557
2013-08-28 0:2:32.310000000000002,62.5
2013-08-28 0:2:33.27000000000001,60
2013-08-28 0:2:34.27000000000001,57.6923
2013-08-28 0:2:35.310000000000002,56.0748
2013-08-28 0:2:36.379999999999995,56.6038
2013-08-28 0:2:37.439999999999998,58.8235
2013-08-28 0:2:38.460000000000008,59.4059
2013-08-28 0:2:39.469999999999999,58.2524
2013-08-28 0:2:40.5,58.2524
2013-08-28 0:2:41.530000000000001,61.2245
2013-08-28 0:2:42.509999999999991,62.5
2013-08-28 0:2:43.469999999999999,60.6061
2013-08-28 0:2:44.460000000000008,58.2524
2013-08-28 0:2:45.490000000000009,54.5455
2013-08-28 0:2:46.590000000000003,54.0541
2013-08-28 0:2:47.699999999999989,56.6038
2013-08-28 0:2:48.759999999999991,58.8235
2013-08-28 0:2:49.780000000000001,56.6038
2013-08-28 0:2:50.840000000000003,56.6038
2013-08-28 0:2:51.900000000000006,57.1429
2013-08-28 0:2:52.949999999999989,57.6923
2013-08-28 0:2:53.990000000000009,60.6061
2013-08-28 0:2:54.97999999999999,63.8298
2013-08-28 0:2:55.919999999999987,63.1579
2013-08-28 0:2:56.870000000000005,63.8298
2013-08-28 0:2:57.810000000000002,63.8298
2013-08-28 0:2:58.75,59.4059
2013-08-28 0:2:59.759999999999991,57.1429
2013-08-28 0:3:0.81000000000000227,56.0748
2013-08-28 0:3:1.8799999999999955,57.1429
2013-08-28 0:3:2.9300000000000068,58.2524
2013-08-28 0:3:3.960000000000008,55.5556
2013-08-28 0:3:5.039999999999992,53.0973
2013-08-28 0:3:6.1699999999999875,55.5556
2013-08-28 0:3:7.25,58.8235
2013-08-28 0:3:8.2700000000000102,61.8557
2013-08-28 0:3:9.2400000000000091,60.6061
2013-08-28 0:3:10.22999999999999,60.6061
2013-08-28 0:3:11.219999999999999,64.5161
2013-08-28 0:3:12.150000000000006,65.2174
2013-08-28 0:3:13.069999999999993,63.1579
2013-08-28 0:3:14.02000000000001,58.8235
2013-08-28 0:3:15.039999999999992,56.6038
2013-08-28 0:3:16.099999999999994,58.2524
2013-08-28 0:3:17.129999999999995,56.6038
2013-08-28 0:3:18.189999999999998,54.5455
2013-08-28 0:3:19.289999999999992,57.1429
2013-08-28 0:3:20.340000000000003,60
2013-08-28 0:3:21.340000000000003,61.2245
2013-08-28 0:3:22.319999999999993,63.1579
2013-08-28 0:3:23.27000000000001,64.5161
2013-08-28 0:3:24.199999999999989,67.4157
2013-08-28 0:3:25.090000000000003,65.9341
2013-08-28 0:3:26.0,66.6667
2013-08-28 0:3:26.900000000000006,65.2174
2013-08-28 0:3:27.819999999999993,61.8557
2013-08-28 0:3:28.789999999999992,58.8235
2013-08-28 0:3:29.810000000000002,58.2524
2013-08-28 0:3:30.840000000000003,59.4059
2013-08-28 0:3:31.849999999999994,59.4059
2013-08-28 0:3:32.860000000000014,58.8235
2013-08-28 0:3:33.879999999999995,58.8235
2013-08-28 0:3:34.900000000000006,62.5
2013-08-28 0:3:35.860000000000014,61.8557
2013-08-28 0:3:36.830000000000013,61.2245
2013-08-28 0:3:37.810000000000002,60.6061
2013-08-28 0:3:38.800000000000011,61.8557
2013-08-28 0:3:39.77000000000001,61.8557
2013-08-28 0:3:40.740000000000009,59.4059
2013-08-28 0:3:41.75,61.2245
2013-08-28 0:3:42.72999999999999,61.8557
2013-08-28 0:3:43.699999999999989,61.8557
2013-08-28 0:3:44.669999999999987,60.6061
2013-08-28 0:3:45.659999999999997,61.8557
2013-08-28 0:3:46.629999999999995,63.1579
2013-08-28 0:3:47.580000000000013,61.8557
2013-08-28 0:3:48.550000000000011,61.8557
2013-08-28 0:3:49.52000000000001,64.5161
2013-08-28 0:3:50.449999999999989,63.8298
2013-08-28 0:3:51.389999999999986,61.2245
2013-08-28 0:3:52.370000000000005,61.8557
2013-08-28 0:3:53.340000000000003,63.8298
2013-08-28 0:3:54.280000000000001,63.1579
2013-08-28 0:3:55.22999999999999,62.5
2013-08-28 0:3:56.189999999999998,63.8298
2013-08-28 0:3:57.129999999999995,65.2174
2013-08-28 0:3:58.050000000000011,66.6667
2013-08-28 0:3:58.949999999999989,66.6667
2013-08-28 0:3:59.849999999999994,68.1818
2013-08-28 0:4:0.72999999999998977,66.6667
2013-08-28 0:4:1.6299999999999955,65.2174
2013-08-28 0:4:2.5500000000000114,63.8298
2013-08-28 0:4:3.4900000000000091,62.5
2013-08-28 0:4:4.4499999999999886,64.5161
2013-08-28 0:4:5.3799999999999955,61.8557
2013-08-28 0:4:6.3499999999999943,61.8557
2013-08-28 0:4:7.3199999999999932,62.5
2013-08-28 0:4:8.2800000000000011,63.8298
2013-08-28 0:4:9.2199999999999989,63.8298
2013-08-28 0:4:10.159999999999997,61.8557
2013-08-28 0:4:11.129999999999995,62.5
2013-08-28 0:4:12.090000000000003,64.5161
2013-08-28 0:4:13.02000000000001,64.5161
2013-08-28 0:4:13.949999999999989,63.8298
2013-08-28 0:4:14.889999999999986,64.5161
2013-08-28 0:4:15.819999999999993,65.2174
2013-08-28 0:4:16.740000000000009,63.1579
2013-08-28 0:4:17.689999999999998,61.2245
2013-08-28 0:4:18.670000000000016,62.5
2013-08-28 0:4:19.629999999999995,61.8557
2013-08-28 0:4:20.600000000000023,59.4059
2013-08-28 0:4:21.610000000000014,58.2524
2013-08-28 0:4:22.639999999999986,59.4059
2013-08-28 0:4:23.649999999999977,60
2013-08-28 0:4:24.649999999999977,59.4059
2013-08-28 0:4:25.660000000000025,59.4059
2013-08-28 0:4:26.670000000000016,60.6061
2013-08-28 0:4:27.660000000000025,61.2245
2013-08-28 0:4:28.639999999999986,60.6061
2013-08-28 0:4:29.629999999999995,60
2013-08-28 0:4:30.629999999999995,60.6061
2013-08-28 0:4:31.620000000000005,61.8557
2013-08-28 0:4:32.589999999999975,61.2245
2013-08-28 0:4:33.569999999999993,61.2245
2013-08-28 0:4:34.550000000000011,62.5
2013-08-28 0:4:35.509999999999991,62.5
2013-08-28 0:4:36.470000000000027,61.8557
2013-08-28 0:4:37.439999999999998,62.5
2013-08-28 0:4:38.399999999999977,64.5161
2013-08-28 0:4:39.329999999999984,62.5
2013-08-28 0:4:40.29000000000002,62.5
2013-08-28 0:4:41.25,65.2174
2013-08-28 0:4:42.170000000000016,64.5161
2013-08-28 0:4:43.100000000000023,65.2174
2013-08-28 0:4:44.019999999999982,65.2174
2013-08-28 0:4:44.939999999999998,64.5161
2013-08-28 0:4:45.870000000000005,67.4157
2013-08-28 0:4:46.759999999999991,69.7674
2013-08-28 0:4:47.620000000000005,68.9655
2013-08-28 0:4:48.490000000000009,68.1818
2013-08-28 0:4:49.370000000000005,68.9655
2013-08-28 0:4:50.240000000000009,68.9655
2013-08-28 0:4:51.110000000000014,68.9655
2013-08-28 0:4:51.980000000000018,68.9655
2013-08-28 0:4:52.850000000000023,67.4157
2013-08-28 0:4:53.740000000000009,66.6667
2013-08-28 0:4:54.639999999999986,67.4157
2013-08-28 0:4:55.529999999999973,67.4157
2013-08-28 0:4:56.420000000000016,66.6667
2013-08-28 0:4:57.319999999999993,64.5161
2013-08-28 0:4:58.25,65.2174
2013-08-28 0:4:59.170000000000016,63.1579
2013-08-28 0:5:0.12000000000000455,61.8557
2013-08-28 0:5:1.089999999999975,62.5
2013-08-28 0:5:2.0500000000000114,60.6061
2013-08-28 0:5:3.0400000000000205,59.4059
2013-08-28 0:5:4.0500000000000114,60
2013-08-28 0:5:5.0500000000000114,60
2013-08-28 0:5:6.0500000000000114,63.8298
2013-08-28 0:5:6.9900000000000091,63.8298
2013-08-28 0:5:7.9300000000000068,65.9341
2013-08-28 0:5:8.839999999999975,65.2174
2013-08-28 0:5:9.7599999999999909,64.5161
2013-08-28 0:5:10.689999999999998,63.8298
2013-08-28 0:5:11.629999999999995,65.2174
2013-08-28 0:5:12.550000000000011,66.6667
2013-08-28 0:5:13.449999999999989,63.1579
2013-08-28 0:5:14.399999999999977,61.2245
2013-08-28 0:5:15.379999999999995,65.9341
2013-08-28 0:5:16.29000000000002,67.4157
2013-08-28 0:5:17.180000000000007,68.1818
2013-08-28 0:5:18.060000000000002,70.5882
2013-08-28 0:5:18.910000000000025,70.5882
2013-08-28 0:5:19.759999999999991,71.4286
2013-08-28 0:5:20.600000000000023,71.4286
2013-08-28 0:5:21.439999999999998,72.2892
2013-08-28 0:5:22.269999999999982,70.5882
2013-08-28 0:5:23.120000000000005,70.5882
2013-08-28 0:5:23.970000000000027,71.4286
2013-08-28 0:5:24.810000000000002,71.4286
2013-08-28 0:5:25.649999999999977,73.1707
2013-08-28 0:5:26.470000000000027,73.1707
2013-08-28 0:5:27.29000000000002,70.5882
2013-08-28 0:5:28.139999999999986,69.7674
2013-08-28 0:5:29.0,68.9655
2013-08-28 0:5:29.870000000000005,65.9341
2013-08-28 0:5:30.779999999999973,64.5161
2013-08-28 0:5:31.70999999999998,61.2245
2013-08-28 0:5:32.689999999999998,62.5
2013-08-28 0:5:33.649999999999977,60.6061
2013-08-28 0:5:34.639999999999986,61.2245
2013-08-28 0:5:35.620000000000005,64.5161
2013-08-28 0:5:36.550000000000011,64.5161
2013-08-28 0:5:37.480000000000018,63.8298
2013-08-28 0:5:38.420000000000016,63.1579
2013-08-28 0:5:39.370000000000005,63.8298
2013-08-28 0:5:40.310000000000002,64.5161
2013-08-28 0:5:41.240000000000009,61.8557
2013-08-28 0:5:42.20999999999998,60
2013-08-28 0:5:43.20999999999998,60.6061
2013-08-28 0:5:44.199999999999989,61.8557
2013-08-28 0:5:45.170000000000016,60.6061
2013-08-28 0:5:46.160000000000025,61.8557
2013-08-28 0:5:47.129999999999995,63.1579
2013-08-28 0:5:48.079999999999984,63.1579
2013-08-28 0:5:49.029999999999973,61.8557
2013-08-28 0:5:50.0,63.8298
2013-08-28 0:5:50.939999999999998,61.8557
2013-08-28 0:5:51.910000000000025,60
2013-08-28 0:5:52.910000000000025,60
2013-08-28 0:5:53.910000000000025,60
2013-08-28 0:5:54.910000000000025,58.2524
2013-08-28 0:5:55.939999999999998,58.2524
2013-08-28 0:5:56.970000000000027,59.4059
2013-08-28 0:5:57.980000000000018,58.2524
2013-08-28 0:5:59.009999999999991,60
2013-08-28 0:6:0.0099999999999909051,62.5
2013-08-28 0:6:0.97000000000002728,64.5161
2013-08-28 0:6:1.8999999999999773,65.9341
2013-08-28 0:6:2.8100000000000023,63.8298
2013-08-28 0:6:3.75,63.1579
2013-08-28 0:6:4.6999999999999886,63.8298
2013-08-28 0:6:5.6399999999999864,60.6061
2013-08-28 0:6:6.6299999999999955,62.5
2013-08-28 0:6:7.589999999999975,62.5
2013-08-28 0:6:8.5500000000000114,60
2013-08-28 0:6:9.5500000000000114,60
2013-08-28 0:6:10.550000000000011,63.1579
2013-08-28 0:6:11.5,62.5
2013-08-28 0:6:12.45999999999998,61.2245
2013-08-28 0:6:13.439999999999998,64.5161
2013-08-28 0:6:14.370000000000005,63.8298
2013-08-28 0:6:15.310000000000002,65.9341
2013-08-28 0:6:18.930000000000007,68.1818
2013-08-28 0:6:24.009999999999991,73.1707
2013-08-28 0:6:24.829999999999984,73.1707
2013-08-28 0:6:25.649999999999977,74.0741
2013-08-28 0:6:26.45999999999998,75
2013-08-28 0:6:27.259999999999991,74.0741
2013-08-28 0:6:28.069999999999993,73.1707
2013-08-28 0:6:28.889999999999986,71.4286
2013-08-28 0:6:29.730000000000018,71.4286
2013-08-28 0:6:30.569999999999993,66.6667
2013-08-28 0:6:31.470000000000027,65.2174
2013-08-28 0:6:32.389999999999986,64.5161
2013-08-28 0:6:33.319999999999993,64.5161
2013-08-28 0:6:34.25,62.5
2013-08-28 0:6:35.20999999999998,60.6061
2013-08-28 0:6:36.199999999999989,58.8235
2013-08-28 0:6:37.220000000000027,61.8557
2013-08-28 0:6:38.189999999999998,62.5
2013-08-28 0:6:39.149999999999977,62.5
2013-08-28 0:6:40.110000000000014,62.5
2013-08-28 0:6:41.069999999999993,63.8298
2013-08-28 0:6:42.009999999999991,61.2245
2013-08-28 0:6:42.990000000000009,61.2245
2013-08-28 0:6:43.970000000000027,61.2245
2013-08-28 0:6:44.949999999999989,62.5
2013-08-28 0:6:45.910000000000025,61.2245
2013-08-28 0:6:46.889999999999986,60
2013-08-28 0:6:47.889999999999986,57.6923
2013-08-28 0:6:48.930000000000007,60
2013-08-28 0:6:49.930000000000007,58.8235
2013-08-28 0:6:50.949999999999989,58.2524
2013-08-28 0:6:51.980000000000018,56.6038
2013-08-28 0:6:53.04000000000002,57.6923
2013-08-28 0:6:54.079999999999984,60
2013-08-28 0:6:55.079999999999984,58.8235
2013-08-28 0:6:56.100000000000023,58.2524
2013-08-28 0:6:57.129999999999995,60
2013-08-28 0:6:58.129999999999995,61.2245
2013-08-28 0:6:59.110000000000014,59.4059
2013-08-28 0:7:0.12000000000000455,58.2524
2013-08-28 0:7:1.1499999999999773,57.6923
2013-08-28 0:7:2.1899999999999977,59.4059
2013-08-28 0:7:3.1999999999999886,60.6061
2013-08-28 0:7:4.1899999999999977,58.2524
2013-08-28 0:7:5.2200000000000273,57.1429
2013-08-28 0:7:6.2699999999999818,58.2524
2013-08-28 0:7:7.3000000000000114,60.6061
2013-08-28 0:7:8.2900000000000205,60.6061
2013-08-28 0:7:9.2799999999999727,59.4059
2013-08-28 0:7:10.29000000000002,60.6061
2013-08-28 0:7:11.279999999999973,62.5
2013-08-28 0:7:12.240000000000009,61.8557
2013-08-28 0:7:13.20999999999998,58.8235
2013-08-28 0:7:14.230000000000018,57.1429
2013-08-28 0:7:15.279999999999973,58.2524
2013-08-28 0:7:16.310000000000002,60
2013-08-28 0:7:17.310000000000002,60.6061
2013-08-28 0:7:18.300000000000011,57.6923
2013-08-28 0:7:19.339999999999975,60
2013-08-28 0:7:20.339999999999975,60.6061
2013-08-28 0:7:21.329999999999984,60.6061
2013-08-28 0:7:22.319999999999993,58.2524
2013-08-28 0:7:23.350000000000023,56.0748
2013-08-28 0:7:24.420000000000016,56.6038
2013-08-28 0:7:25.480000000000018,58.8235
2013-08-28 0:7:26.5,58.8235
2013-08-28 0:7:27.519999999999982,57.6923
2013-08-28 0:7:28.560000000000002,57.1429
2013-08-28 0:7:29.610000000000014,59.4059
2013-08-28 0:7:30.620000000000005,60
2013-08-28 0:7:31.620000000000005,58.2524
2013-08-28 0:7:32.649999999999977,56.0748
2013-08-28 0:7:33.720000000000027,56.6038
2013-08-28 0:7:34.779999999999973,58.2524
2013-08-28 0:7:35.810000000000002,58.2524
2013-08-28 0:7:36.839999999999975,56.0748
2013-08-28 0:7:37.910000000000025,55.0459
2013-08-28 0:7:39.0,58.2524
2013-08-28 0:7:40.029999999999973,58.8235
2013-08-28 0:7:41.050000000000011,57.6923
2013-08-28 0:7:42.089999999999975,56.6038
2013-08-28 0:7:43.149999999999977,57.1429
2013-08-28 0:7:44.199999999999989,59.4059
2013-08-28 0:7:45.20999999999998,61.2245
2013-08-28 0:7:46.189999999999998,60.6061
2013-08-28 0:7:47.180000000000007,58.2524
2013-08-28 0:7:48.20999999999998,56.6038
2013-08-28 0:7:49.269999999999982,57.6923
2013-08-28 0:7:50.310000000000002,58.8235
2013-08-28 0:7:51.329999999999984,56.6038
2013-08-28 0:7:52.389999999999986,55.0459
2013-08-28 0:7:53.480000000000018,55.0459
2013-08-28 0:7:54.569999999999993,57.6923
2013-08-28 0:7:55.610000000000014,60
2013-08-28 0:7:56.610000000000014,58.8235
2013-08-28 0:7:57.629999999999995,58.2524
2013-08-28 0:7:58.660000000000025,59.4059
2013-08-28 0:7:59.670000000000016,60.6061
2013-08-28 0:8:0.66000000000002501,60.6061
2013-08-28 0:8:1.6499999999999773,58.8235
2013-08-28 0:8:2.6700000000000159,57.6923
2013-08-28 0:8:3.7099999999999795,58.2524
2013-08-28 0:8:4.7400000000000091,60
2013-08-28 0:8:5.7400000000000091,60
2013-08-28 0:8:6.7400000000000091,60
2013-08-28 0:8:7.7400000000000091,59.4059
2013-08-28 0:8:8.75,59.4059
2013-08-28 0:8:9.7599999999999909,60.6061
2013-08-28 0:8:10.75,59.4059
2013-08-28 0:8:11.759999999999991,57.6923
2013-08-28 0:8:12.800000000000011,56.0748
2013-08-28 0:8:13.870000000000005,55.0459
2013-08-28 0:8:14.95999999999998,56.0748
2013-08-28 0:8:16.029999999999973,57.6923
2013-08-28 0:8:17.069999999999993,60.6061
2013-08-28 0:8:18.060000000000002,59.4059
2013-08-28 0:8:19.069999999999993,59.4059
2013-08-28 0:8:20.079999999999984,60
2013-08-28 0:8:21.079999999999984,61.8557
2013-08-28 0:8:22.050000000000011,62.5
2013-08-28 0:8:23.009999999999991,60
2013-08-28 0:8:24.009999999999991,57.6923
2013-08-28 0:8:25.050000000000011,55.5556
2013-08-28 0:8:26.129999999999995,54.5455
2013-08-28 0:8:27.230000000000018,57.1429
2013-08-28 0:8:28.279999999999973,58.8235
2013-08-28 0:8:29.300000000000011,58.2524
2013-08-28 0:8:30.329999999999984,58.2524
2013-08-28 0:8:31.360000000000014,56.6038
2013-08-28 0:8:32.419999999999959,57.6923
2013-08-28 0:8:33.460000000000036,59.4059
2013-08-28 0:8:34.470000000000027,61.2245
2013-08-28 0:8:35.450000000000045,58.2524
2013-08-28 0:8:36.480000000000018,56.0748
2013-08-28 0:8:37.549999999999955,55.5556
2013-08-28 0:8:38.629999999999995,58.8235
2013-08-28 0:8:39.649999999999977,60
2013-08-28 0:8:40.649999999999977,58.2524
2013-08-28 0:8:41.67999999999995,57.1429
2013-08-28 0:8:42.730000000000018,58.2524
2013-08-28 0:8:43.759999999999991,60.6061
2013-08-28 0:8:44.75,60.6061
2013-08-28 0:8:45.740000000000009,58.2524
2013-08-28 0:8:46.769999999999982,57.1429
2013-08-28 0:8:47.82000000000005,57.1429
2013-08-28 0:8:48.870000000000005,56.6038
2013-08-28 0:8:49.92999999999995,55.0459
2013-08-28 0:8:51.019999999999982,54.0541
2013-08-28 0:8:52.129999999999995,54.5455
2013-08-28 0:8:53.230000000000018,56.0748
2013-08-28 0:8:54.299999999999955,57.6923
2013-08-28 0:8:55.340000000000032,60.6061
2013-08-28 0:8:56.330000000000041,60
2013-08-28 0:8:57.330000000000041,60
2013-08-28 0:8:58.330000000000041,59.4059
2013-08-28 0:8:59.340000000000032,59.4059
2013-08-28 0:9:0.35000000000002274,60
2013-08-28 0:9:1.3500000000000227,59.4059
2013-08-28 0:9:2.3600000000000136,57.6923
2013-08-28 0:9:3.3999999999999773,57.6923
2013-08-28 0:9:4.4400000000000546,57.1429
2013-08-28 0:9:5.4900000000000091,58.2524
2013-08-28 0:9:6.5199999999999818,60.6061
2013-08-28 0:9:7.5099999999999909,59.4059
2013-08-28 0:9:8.5199999999999818,58.2524
2013-08-28 0:9:9.5499999999999545,57.6923
2013-08-28 0:9:10.590000000000032,58.8235
2013-08-28 0:9:11.610000000000014,60
2013-08-28 0:9:12.610000000000014,59.4059
2013-08-28 0:9:13.620000000000005,57.6923
2013-08-28 0:9:14.659999999999968,56.6038
2013-08-28 0:9:15.720000000000027,57.6923
2013-08-28 0:9:16.759999999999991,60
2013-08-28 0:9:17.759999999999991,61.8557
2013-08-28 0:9:18.730000000000018,63.8298
2013-08-28 0:9:19.669999999999959,62.5
2013-08-28 0:9:20.629999999999995,61.2245
2013-08-28 0:9:21.610000000000014,58.2524
2013-08-28 0:9:22.639999999999986,60.6061
2013-08-28 0:9:23.629999999999995,60.6061
2013-08-28 0:9:24.620000000000005,57.1429
2013-08-28 0:9:25.669999999999959,55.0459
2013-08-28 0:9:26.759999999999991,55.0459
2013-08-28 0:9:27.850000000000023,58.8235
2013-08-28 0:9:28.870000000000005,60
2013-08-28 0:9:29.870000000000005,57.6923
2013-08-28 0:9:30.909999999999968,58.2524
2013-08-28 0:9:31.940000000000055,60
2013-08-28 0:9:32.940000000000055,61.8557
2013-08-28 0:9:33.909999999999968,58.8235
2013-08-28 0:9:34.92999999999995,58.2524
2013-08-28 0:9:35.960000000000036,58.2524
2013-08-28 0:9:36.990000000000009,57.1429
2013-08-28 0:9:38.039999999999964,57.6923
2013-08-28 0:9:39.080000000000041,58.8235
2013-08-28 0:9:40.100000000000023,59.4059
2013-08-28 0:9:41.110000000000014,59.4059
2013-08-28 0:9:42.120000000000005,58.2524
2013-08-28 0:9:43.149999999999977,56.6038
2013-08-28 0:9:44.210000000000036,57.6923
2013-08-28 0:9:45.25,59.4059
2013-08-28 0:9:46.259999999999991,57.6923
2013-08-28 0:9:47.299999999999955,57.6923
2013-08-28 0:9:48.340000000000032,56.6038
2013-08-28 0:9:49.399999999999977,58.2524
2013-08-28 0:9:50.42999999999995,60.6061
2013-08-28 0:9:51.419999999999959,61.8557
2013-08-28 0:9:52.389999999999986,59.4059
2013-08-28 0:9:53.399999999999977,58.2524
2013-08-28 0:9:54.42999999999995,60
2013-08-28 0:9:55.42999999999995,61.2245
2013-08-28 0:9:56.409999999999968,61.8557
2013-08-28 0:9:57.379999999999995,57.1429
2013-08-28 0:9:58.42999999999995,57.1429
2013-08-28 0:9:59.480000000000018,58.8235
2013-08-28 0:10:0.5,61.2245
2013-08-28 0:10:1.4800000000000182,62.5
2013-08-28 0:10:2.4400000000000546,64.5161
2013-08-28 0:10:3.3700000000000045,61.8557
2013-08-28 0:10:4.3400000000000318,59.4059
2013-08-28 0:10:5.3500000000000227,61.2245
2013-08-28 0:10:6.3300000000000409,62.5
2013-08-28 0:10:7.2899999999999636,61.8557
2013-08-28 0:10:8.2599999999999909,57.1429
2013-08-28 0:10:9.3099999999999454,56.6038
2013-08-28 0:10:10.370000000000005,60
2013-08-28 0:10:11.370000000000005,62.5
2013-08-28 0:10:12.330000000000041,60.6061
2013-08-28 0:10:13.32000000000005,58.2524
2013-08-28 0:10:14.350000000000023,55.5556
2013-08-28 0:10:15.42999999999995,55.5556
2013-08-28 0:10:16.509999999999991,58.8235
2013-08-28 0:10:17.529999999999973,61.8557
2013-08-28 0:10:18.5,60
2013-08-28 0:10:19.5,59.4059
2013-08-28 0:10:20.509999999999991,60.6061
2013-08-28 0:10:21.5,61.2245
2013-08-28 0:10:22.480000000000018,62.5
2013-08-28 0:10:23.440000000000055,63.1579
2013-08-28 0:10:24.389999999999986,60
2013-08-28 0:10:25.389999999999986,58.2524
2013-08-28 0:10:26.419999999999959,59.4059
2013-08-28 0:10:27.42999999999995,59.4059
2013-08-28 0:10:28.440000000000055,60.6061
2013-08-28 0:10:29.42999999999995,61.2245
2013-08-28 0:10:30.409999999999968,57.6923
2013-08-28 0:10:31.450000000000045,57.1429
2013-08-28 0:10:32.5,57.6923
2013-08-28 0:10:33.539999999999964,56.6038
2013-08-28 0:10:34.600000000000023,60.6061
2013-08-28 0:10:35.590000000000032,61.2245
2013-08-28 0:10:36.57000000000005,61.8557
2013-08-28 0:10:37.539999999999964,60.6061
2013-08-28 0:10:38.529999999999973,58.2524
2013-08-28 0:10:39.559999999999945,55.0459
2013-08-28 0:10:40.649999999999977,55.0459
2013-08-28 0:10:41.740000000000009,60
2013-08-28 0:10:42.740000000000009,61.2245
2013-08-28 0:10:43.720000000000027,60
2013-08-28 0:10:44.720000000000027,55.5556
2013-08-28 0:10:45.799999999999955,53.5714
2013-08-28 0:10:46.919999999999959,58.2524
2013-08-28 0:10:47.950000000000045,59.4059
2013-08-28 0:10:48.960000000000036,55.0459
2013-08-28 0:10:50.049999999999955,55.5556
2013-08-28 0:10:51.129999999999995,58.8235
2013-08-28 0:10:52.149999999999977,61.8557
2013-08-28 0:10:57.090000000000032,57.6923
2013-08-28 0:10:58.129999999999995,58.8235
2013-08-28 0:10:59.149999999999977,55.5556
2013-08-28 0:11:0.23000000000001819,55.0459
2013-08-28 0:11:1.32000000000005,56.0748
2013-08-28 0:11:2.3899999999999864,57.6923
2013-08-28 0:11:3.42999999999995,58.8235
2013-08-28 0:11:4.4500000000000455,56.0748
2013-08-28 0:11:5.5199999999999818,55.0459
2013-08-28 0:11:6.6100000000000136,54.5455
2013-08-28 0:11:7.7100000000000364,56.0748
2013-08-28 0:11:8.7799999999999727,56.6038
2013-08-28 0:11:9.8400000000000318,55.5556
2013-08-28 0:11:10.919999999999959,55.5556
2013-08-28 0:11:12.0,54.5455
2013-08-28 0:11:13.100000000000023,54.5455
2013-08-28 0:11:14.200000000000045,57.1429
2013-08-28 0:11:15.25,58.2524
2013-08-28 0:11:16.279999999999973,57.1429
2013-08-28 0:11:17.330000000000041,56.6038
2013-08-28 0:11:18.389999999999986,57.1429
2013-08-28 0:11:19.440000000000055,57.6923
2013-08-28 0:11:20.480000000000018,60
2013-08-28 0:11:21.480000000000018,60
2013-08-28 0:11:22.480000000000018,57.1429
2013-08-28 0:11:23.529999999999973,55.5556
2013-08-28 0:11:24.610000000000014,53.5714
2013-08-28 0:11:25.730000000000018,56.6038
2013-08-28 0:11:26.789999999999964,57.1429
2013-08-28 0:11:27.840000000000032,55.0459
2013-08-28 0:11:28.92999999999995,54.5455
2013-08-28 0:11:30.029999999999973,55.5556
2013-08-28 0:11:31.110000000000014,57.1429
2013-08-28 0:11:32.159999999999968,57.6923
2013-08-28 0:11:33.200000000000045,56.6038
2013-08-28 0:11:34.259999999999991,56.0748
2013-08-28 0:11:35.330000000000041,58.2524
2013-08-28 0:11:36.360000000000014,60
2013-08-28 0:11:37.360000000000014,61.8557
2013-08-28 0:11:38.330000000000041,61.2245
2013-08-28 0:11:39.309999999999945,58.2524
2013-08-28 0:11:40.340000000000032,56.0748
2013-08-28 0:11:41.409999999999968,58.2524
2013-08-28 0:11:42.440000000000055,59.4059
2013-08-28 0:11:43.450000000000045,60.6061
2013-08-28 0:11:44.440000000000055,60.6061
2013-08-28 0:11:45.42999999999995,59.4059
2013-08-28 0:11:46.440000000000055,61.8557
2013-08-28 0:11:47.409999999999968,63.1579
2013-08-28 0:11:48.360000000000014,61.8557
2013-08-28 0:11:49.330000000000041,60.6061
2013-08-28 0:11:50.32000000000005,68.9655
2013-08-28 0:11:51.190000000000055,70.5882
2013-08-28 0:11:52.039999999999964,72.2892
2013-08-28 0:11:52.870000000000005,72.2892
2013-08-28 0:11:53.700000000000045,68.1818
2013-08-28 0:11:54.580000000000041,65.2174
2013-08-28 0:11:55.5,60.6061
2013-08-28 0:11:56.490000000000009,56.0748
2013-08-28 0:11:57.559999999999945,57.1429
2013-08-28 0:11:58.610000000000014,58.2524
2013-08-28 0:11:59.639999999999986,54.5455
2013-08-28 0:12:0.74000000000000909,53.5714
2013-08-28 0:12:1.8600000000000136,52.6316
2013-08-28 0:12:3.0,54.5455
2013-08-28 0:12:4.1000000000000227,58.8235
2013-08-28 0:12:5.1200000000000045,61.2245
2013-08-28 0:12:6.1000000000000227,60.6061
2013-08-28 0:12:7.0900000000000318,60.6061
2013-08-28 0:12:8.0800000000000409,60
2013-08-28 0:12:9.0800000000000409,58.8235
2013-08-28 0:12:10.100000000000023,61.2245
2013-08-28 0:12:11.080000000000041,60
2013-08-28 0:12:12.080000000000041,58.8235
2013-08-28 0:12:13.100000000000023,58.2524
2013-08-28 0:12:14.129999999999995,57.6923
2013-08-28 0:12:15.169999999999959,60.6061
2013-08-28 0:12:16.159999999999968,62.5
2013-08-28 0:12:17.120000000000005,61.2245
2013-08-28 0:12:18.100000000000023,60
2013-08-28 0:12:19.100000000000023,57.6923
2013-08-28 0:12:20.139999999999986,59.4059
2013-08-28 0:12:21.149999999999977,60.6061
2013-08-28 0:12:22.139999999999986,60
2013-08-28 0:12:23.139999999999986,57.1429
2013-08-28 0:12:24.190000000000055,55.5556
2013-08-28 0:12:25.269999999999982,58.2524
2013-08-28 0:12:26.299999999999955,60.6061
2013-08-28 0:12:27.289999999999964,61.2245
2013-08-28 0:12:28.269999999999982,63.8298
2013-08-28 0:12:29.210000000000036,62.5
2013-08-28 0:12:30.169999999999959,61.2245
2013-08-28 0:12:31.149999999999977,61.8557
2013-08-28 0:12:32.120000000000005,62.5
2013-08-28 0:12:33.080000000000041,63.8298
2013-08-28 0:12:34.019999999999982,64.5161
2013-08-28 0:12:34.950000000000045,60
2013-08-28 0:12:35.950000000000045,65.2174
2013-08-28 0:12:36.870000000000005,65.2174
2013-08-28 0:12:37.789999999999964,65.2174
2013-08-28 0:12:38.710000000000036,66.6667
2013-08-28 0:12:39.610000000000014,68.1818
2013-08-28 0:12:40.490000000000009,73.1707
2013-08-28 0:12:41.309999999999945,67.4157
2013-08-28 0:12:42.200000000000045,65.2174
2013-08-28 0:12:43.120000000000005,59.4059
2013-08-28 0:12:44.129999999999995,56.6038
2013-08-28 0:12:45.190000000000055,60
2013-08-28 0:12:46.190000000000055,61.8557
2013-08-28 0:12:47.159999999999968,61.2245
2013-08-28 0:12:48.139999999999986,59.4059
2013-08-28 0:12:49.149999999999977,57.1429
2013-08-28 0:12:50.200000000000045,60
2013-08-28 0:12:51.200000000000045,61.2245
2013-08-28 0:12:52.17999999999995,57.1429
2013-08-28 0:12:53.230000000000018,57.1429
2013-08-28 0:12:54.279999999999973,56.0748
2013-08-28 0:12:55.350000000000023,58.8235
2013-08-28 0:12:56.370000000000005,60.6061
2013-08-28 0:12:57.360000000000014,56.0748
2013-08-28 0:12:58.42999999999995,54.0541
2013-08-28 0:12:59.539999999999964,52.6316
2013-08-28 0:13:0.67999999999994998,52.6316
2013-08-28 0:13:1.82000000000005,55.5556
2013-08-28 0:13:2.8999999999999773,57.6923
2013-08-28 0:13:3.9400000000000546,56.0748
2013-08-28 0:13:5.0099999999999909,56.6038
2013-08-28 0:13:6.07000000000005,57.1429
2013-08-28 0:13:7.1200000000000045,57.6923
2013-08-28 0:13:8.1599999999999682,60.6061
2013-08-28 0:13:9.1499999999999773,61.8557
2013-08-28 0:13:10.120000000000005,60.6061
2013-08-28 0:13:11.110000000000014,59.4059
2013-08-28 0:13:12.120000000000005,61.8557
2013-08-28 0:13:13.090000000000032,61.8557
2013-08-28 0:13:14.059999999999945,61.2245
2013-08-28 0:13:15.039999999999964,57.1429
2013-08-28 0:13:16.090000000000032,54.0541
2013-08-28 0:13:17.200000000000045,54.5455
2013-08-28 0:13:18.299999999999955,60.6061
2013-08-28 0:13:19.289999999999964,63.8298
2013-08-28 0:13:20.230000000000018,63.8298
2013-08-28 0:13:21.169999999999959,65.9341
2013-08-28 0:13:22.080000000000041,68.9655
2013-08-28 0:13:22.950000000000045,67.4157
2013-08-28 0:13:23.840000000000032,65.2174
2013-08-28 0:13:24.759999999999991,64.5161
2013-08-28 0:13:25.690000000000055,64.5161
2013-08-28 0:13:26.620000000000005,61.2245
2013-08-28 0:13:27.600000000000023,63.8298
2013-08-28 0:13:28.539999999999964,65.9341
2013-08-28 0:13:29.450000000000045,67.4157
2013-08-28 0:13:30.340000000000032,68.1818
2013-08-28 0:13:31.220000000000027,69.7674
2013-08-28 0:13:32.080000000000041,64.5161
2013-08-28 0:13:33.009999999999991,63.1579
2013-08-28 0:13:33.960000000000036,59.4059
2013-08-28 0:13:34.970000000000027,54.5455
2013-08-28 0:13:36.07000000000005,56.6038
2013-08-28 0:13:37.129999999999995,57.6923
2013-08-28 0:13:38.169999999999959,53.0973
2013-08-28 0:13:39.299999999999955,52.6316
2013-08-28 0:13:40.440000000000055,54.0541
2013-08-28 0:13:41.549999999999955,55.0459
2013-08-28 0:13:42.639999999999986,56.6038
2013-08-28 0:13:43.700000000000045,58.2524
2013-08-28 0:13:44.730000000000018,60
2013-08-28 0:13:45.730000000000018,61.8557
2013-08-28 0:13:46.700000000000045,61.8557
2013-08-28 0:13:47.669999999999959,61.2245
2013-08-28 0:13:48.649999999999977,60
2013-08-28 0:13:49.649999999999977,58.2524
2013-08-28 0:13:50.67999999999995,57.1429
2013-08-28 0:13:51.730000000000018,58.8235
2013-08-28 0:13:52.75,59.4059
2013-08-28 0:13:53.759999999999991,57.6923
2013-08-28 0:13:54.799999999999955,55.5556
2013-08-28 0:13:55.879999999999995,57.1429
2013-08-28 0:13:56.92999999999995,60
2013-08-28 0:13:57.92999999999995,58.2524
2013-08-28 0:13:58.960000000000036,57.1429
2013-08-28 0:14:0.0099999999999909051,55.0459
2013-08-28 0:14:1.1000000000000227,58.2524
2013-08-28 0:14:2.1299999999999955,58.8235
2013-08-28 0:14:3.1499999999999773,60
2013-08-28 0:14:4.1499999999999773,53.5714
2013-08-28 0:14:5.2699999999999818,50.4202
2013-08-28 0:14:6.4600000000000364,54.5455
2013-08-28 0:14:7.5599999999999454,59.4059
2013-08-28 0:14:8.57000000000005,61.2245
2013-08-28 0:14:9.5499999999999545,58.8235
2013-08-28 0:14:10.57000000000005,55.5556
2013-08-28 0:14:11.649999999999977,57.6923
2013-08-28 0:14:12.690000000000055,60
2013-08-28 0:14:13.690000000000055,61.8557
2013-08-28 0:14:14.659999999999968,58.2524
2013-08-28 0:14:15.690000000000055,55.0459
2013-08-28 0:14:16.779999999999973,58.2524
2013-08-28 0:14:17.809999999999945,62.5
2013-08-28 0:14:18.769999999999982,62.5
2013-08-28 0:14:19.730000000000018,59.4059
2013-08-28 0:14:20.740000000000009,63.8298
2013-08-28 0:14:21.67999999999995,67.4157
2013-08-28 0:14:22.57000000000005,65.2174
2013-08-28 0:14:23.490000000000009,65.9341
2013-08-28 0:14:24.399999999999977,68.1818
2013-08-28 0:14:25.279999999999973,71.4286
2013-08-28 0:14:26.120000000000005,71.4286
2013-08-28 0:14:26.960000000000036,67.4157
2013-08-28 0:14:27.850000000000023,67.4157
2013-08-28 0:14:28.740000000000009,69.7674
2013-08-28 0:14:29.600000000000023,68.9655
2013-08-28 0:14:30.470000000000027,65.9341
2013-08-28 0:14:31.379999999999995,63.1579
2013-08-28 0:14:32.330000000000041,62.5
2013-08-28 0:14:33.289999999999964,63.8298
2013-08-28 0:14:34.230000000000018,65.2174
2013-08-28 0:14:35.149999999999977,62.5
2013-08-28 0:14:36.110000000000014,60.6061
2013-08-28 0:14:37.100000000000023,58.2524
2013-08-28 0:14:38.129999999999995,61.8557
2013-08-28 0:14:39.100000000000023,60.6061
2013-08-28 0:14:40.090000000000032,60
2013-08-28 0:14:41.090000000000032,57.6923
2013-08-28 0:14:42.129999999999995,54.5455
2013-08-28 0:14:43.230000000000018,52.1739
2013-08-28 0:14:44.379999999999995,52.6316
2013-08-28 0:14:45.519999999999982,53.5714
2013-08-28 0:14:46.639999999999986,57.6923
2013-08-28 0:14:47.67999999999995,57.6923
2013-08-28 0:14:48.720000000000027,56.6038
2013-08-28 0:14:49.779999999999973,56.0748
2013-08-28 0:14:50.850000000000023,57.6923
2013-08-28 0:14:51.889999999999986,58.2524
2013-08-28 0:14:52.919999999999959,59.4059
2013-08-28 0:14:53.92999999999995,58.2524
2013-08-28 0:14:54.960000000000036,56.6038
2013-08-28 0:14:56.019999999999982,57.1429
2013-08-28 0:14:57.07000000000005,57.1429
2013-08-28 0:14:58.120000000000005,58.2524
2013-08-28 0:14:59.149999999999977,59.4059
2013-08-28 0:15:0.15999999999996817,58.2524
2013-08-28 0:15:1.1900000000000546,56.0748
2013-08-28 0:15:2.2599999999999909,57.1429
2013-08-28 0:15:3.3099999999999454,56.6038
2013-08-28 0:15:4.3700000000000045,57.6923
2013-08-28 0:15:5.4099999999999682,58.8235
2013-08-28 0:15:6.42999999999995,57.1429
2013-08-28 0:15:7.4800000000000182,56.0748
2013-08-28 0:15:8.5499999999999545,56.6038
2013-08-28 0:15:9.6100000000000136,60.6061
2013-08-28 0:15:10.600000000000023,61.8557
2013-08-28 0:15:11.57000000000005,63.1579
2013-08-28 0:15:12.519999999999982,59.4059
2013-08-28 0:15:13.529999999999973,57.1429
2013-08-28 0:15:14.580000000000041,55.0459
2013-08-28 0:15:15.669999999999959,57.6923
2013-08-28 0:15:16.710000000000036,60
2013-08-28 0:15:17.710000000000036,60.6061
2013-08-28 0:15:18.700000000000045,57.6923
2013-08-28 0:15:19.740000000000009,56.6038
2013-08-28 0:15:20.799999999999955,56.0748
2013-08-28 0:15:21.870000000000005,60
2013-08-28 0:15:22.870000000000005,61.2245
2013-08-28 0:15:23.850000000000023,61.2245
2013-08-28 0:15:24.830000000000041,58.2524
2013-08-28 0:15:25.860000000000014,56.6038
2013-08-28 0:15:26.919999999999959,60
2013-08-28 0:15:27.919999999999959,61.8557
2013-08-28 0:15:28.889999999999986,58.8235
2013-08-28 0:15:29.909999999999968,57.6923
2013-08-28 0:15:30.950000000000045,62.5
2013-08-28 0:15:31.909999999999968,63.8298
2013-08-28 0:15:32.850000000000023,65.9341
2013-08-28 0:15:33.759999999999991,65.9341
2013-08-28 0:15:34.669999999999959,65.9341
2013-08-28 0:15:35.580000000000041,67.4157
2013-08-28 0:15:36.470000000000027,70.5882
2013-08-28 0:15:37.32000000000005,69.7674
2013-08-28 0:15:38.17999999999995,68.1818
2013-08-28 0:15:39.059999999999945,68.9655
2013-08-28 0:15:39.92999999999995,68.1818
2013-08-28 0:15:40.809999999999945,69.7674
2013-08-28 0:15:41.669999999999959,69.7674
2013-08-28 0:15:42.529999999999973,69.7674
2013-08-28 0:15:43.389999999999986,65.2174
2013-08-28 0:15:44.309999999999945,63.1579
2013-08-28 0:15:45.259999999999991,60
2013-08-28 0:15:46.259999999999991,56.6038
2013-08-28 0:15:47.32000000000005,61.2245
2013-08-28 0:15:48.299999999999955,61.2245
2013-08-28 0:15:49.279999999999973,57.6923
2013-08-28 0:15:50.32000000000005,54.5455
2013-08-28 0:15:51.419999999999959,53.0973
2013-08-28 0:15:52.549999999999955,52.6316
2013-08-28 0:15:53.690000000000055,56.0748
2013-08-28 0:15:54.759999999999991,57.6923
2013-08-28 0:15:55.799999999999955,57.1429
2013-08-28 0:15:56.850000000000023,56.6038
2013-08-28 0:15:57.909999999999968,56.6038
2013-08-28 0:15:58.970000000000027,57.1429
2013-08-28 0:16:0.01999999999998181,58.8235
2013-08-28 0:16:1.0399999999999636,57.6923
2013-08-28 0:16:2.0800000000000409,57.6923
2013-08-28 0:16:3.1200000000000045,57.1429
2013-08-28 0:16:4.1699999999999591,60
2013-08-28 0:16:5.1699999999999591,61.8557
2013-08-28 0:16:6.1399999999999864,61.2245
2013-08-28 0:16:7.1200000000000045,58.8235
2013-08-28 0:16:8.1399999999999864,59.4059
2013-08-28 0:16:9.1499999999999773,60
2013-08-28 0:16:10.149999999999977,60.6061
2013-08-28 0:16:11.139999999999986,57.1429
2013-08-28 0:16:12.190000000000055,53.0973
2013-08-28 0:16:13.32000000000005,52.6316
2013-08-28 0:16:14.460000000000036,56.6038
2013-08-28 0:16:15.519999999999982,60
2013-08-28 0:16:16.519999999999982,60
2013-08-28 0:16:17.519999999999982,58.2524
2013-08-28 0:16:18.549999999999955,58.2524
2013-08-28 0:16:19.580000000000041,61.8557
2013-08-28 0:16:20.549999999999955,61.8557
2013-08-28 0:16:21.519999999999982,58.8235
2013-08-28 0:16:22.539999999999964,55.0459
2013-08-28 0:16:23.629999999999995,58.8235
2013-08-28 0:16:24.649999999999977,61.2245
2013-08-28 0:16:25.629999999999995,62.5
2013-08-28 0:16:26.590000000000032,58.8235
2013-08-28 0:16:27.610000000000014,57.1429
2013-08-28 0:16:28.659999999999968,61.8557
2013-08-28 0:16:29.629999999999995,65.2174
2013-08-28 0:16:30.549999999999955,64.5161
2013-08-28 0:16:31.480000000000018,61.2245
2013-08-28 0:16:32.460000000000036,63.1579
2013-08-28 0:16:33.409999999999968,65.2174
2013-08-28 0:16:34.330000000000041,66.6667
2013-08-28 0:16:35.230000000000018,62.5
2013-08-28 0:16:36.190000000000055,61.8557
2013-08-28 0:16:37.159999999999968,65.9341
2013-08-28 0:16:38.07000000000005,65.9341
2013-08-28 0:16:38.980000000000018,65.2174
2013-08-28 0:16:39.899999999999977,65.2174
2013-08-28 0:16:40.82000000000005,69.7674
2013-08-28 0:16:41.67999999999995,66.6667
2013-08-28 0:16:42.580000000000041,68.1818
2013-08-28 0:16:43.460000000000036,70.5882
2013-08-28 0:16:44.309999999999945,70.5882
2013-08-28 0:16:45.159999999999968,68.1818
2013-08-28 0:16:46.039999999999964,71.4286
2013-08-28 0:16:46.879999999999995,73.1707
2013-08-28 0:16:47.700000000000045,75
2013-08-28 0:16:48.5,72.2892
2013-08-28 0:16:49.330000000000041,69.7674
2013-08-28 0:16:50.190000000000055,65.2174
2013-08-28 0:16:51.110000000000014,57.6923
2013-08-28 0:16:52.149999999999977,56.6038
2013-08-28 0:16:53.210000000000036,58.2524
2013-08-28 0:16:54.240000000000009,56.0748
2013-08-28 0:16:57.639999999999986,50.8475
2013-08-28 0:17:1.3400000000000318,50.4202
2013-08-28 0:17:2.5299999999999727,54.5455
2013-08-28 0:17:3.6299999999999955,55.5556
2013-08-28 0:17:4.7100000000000364,58.8235
2013-08-28 0:17:5.7300000000000182,62.5
2013-08-28 0:17:6.6900000000000546,59.4059
2013-08-28 0:17:7.7000000000000455,57.6923
2013-08-28 0:17:8.7400000000000091,56.0748
2013-08-28 0:17:9.8099999999999454,55.0459
2013-08-28 0:17:10.900000000000091,57.6923
2013-08-28 0:17:11.940000000000055,58.8235
2013-08-28 0:17:12.960000000000036,57.1429
2013-08-28 0:17:14.009999999999991,55.5556
2013-08-28 0:17:15.089999999999918,56.6038
2013-08-28 0:17:16.150000000000091,55.0459
2013-08-28 0:17:17.240000000000009,60
2013-08-28 0:17:18.240000000000009,60.6061
2013-08-28 0:17:19.230000000000018,61.8557
2013-08-28 0:17:20.200000000000045,58.8235
2013-08-28 0:17:21.220000000000027,57.1429
2013-08-28 0:17:22.269999999999982,56.0748
2013-08-28 0:17:24.630000000000109,50.4202
2013-08-28 0:17:25.819999999999936,56.6038
2013-08-28 0:17:26.880000000000109,60
2013-08-28 0:17:27.880000000000109,57.1429
2013-08-28 0:17:28.930000000000064,55.5556
2013-08-28 0:17:30.009999999999991,56.6038
2013-08-28 0:17:31.069999999999936,60
2013-08-28 0:17:32.069999999999936,61.2245
2013-08-28 0:17:33.049999999999955,59.4059
2013-08-28 0:17:34.059999999999945,57.1429
2013-08-28 0:17:35.1099999999999,56.6038
2013-08-28 0:17:36.170000000000073,59.4059
2013-08-28 0:17:37.180000000000064,61.2245
2013-08-28 0:17:38.160000000000082,58.2524
2013-08-28 0:17:39.190000000000055,57.1429
2013-08-28 0:17:40.240000000000009,55.5556
2013-08-28 0:17:41.319999999999936,60
2013-08-28 0:17:42.319999999999936,63.1579
2013-08-28 0:17:43.269999999999982,63.8298
2013-08-28 0:17:44.210000000000036,62.5
2013-08-28 0:17:45.170000000000073,60.6061
2013-08-28 0:17:46.160000000000082,58.2524
2013-08-28 0:17:47.190000000000055,62.5
2013-08-28 0:17:48.150000000000091,63.1579
2013-08-28 0:17:49.099999999999909,64.5161
2013-08-28 0:17:50.029999999999973,60.6061
2013-08-28 0:17:51.019999999999982,59.4059
2013-08-28 0:17:52.029999999999973,61.8557
2013-08-28 0:17:53.0,65.2174
2013-08-28 0:17:53.920000000000073,66.6667
2013-08-28 0:17:54.819999999999936,66.6667
2013-08-28 0:17:55.720000000000027,68.9655
2013-08-28 0:17:56.589999999999918,70.5882
2013-08-28 0:17:57.440000000000055,73.1707
2013-08-28 0:17:58.259999999999991,70.5882
2013-08-28 0:17:59.1099999999999,65.9341
2013-08-28 0:18:0.01999999999998181,63.8298
2013-08-28 0:18:0.96000000000003638,63.8298
2013-08-28 0:18:1.9000000000000909,64.5161
2013-08-28 0:18:2.8299999999999272,65.2174
2013-08-28 0:18:3.75,63.1579
2013-08-28 0:18:4.7000000000000455,62.5
2013-08-28 0:18:5.6600000000000819,64.5161
2013-08-28 0:18:6.5899999999999181,64.5161
2013-08-28 0:18:7.5199999999999818,62.5
2013-08-28 0:18:8.4800000000000182,57.1429
2013-08-28 0:18:11.910000000000082,53.0973
2013-08-28 0:18:13.039999999999964,58.2524
2013-08-28 0:18:14.069999999999936,56.6038
2013-08-28 0:18:15.130000000000109,56.6038
2013-08-28 0:18:16.190000000000055,57.1429
2013-08-28 0:18:17.240000000000009,57.6923
2013-08-28 0:18:18.279999999999973,61.8557
2013-08-28 0:18:19.25,63.1579
2013-08-28 0:18:20.200000000000045,61.8557
2013-08-28 0:18:21.170000000000073,61.8557
2013-08-28 0:18:22.1400000000001,62.5
2013-08-28 0:18:23.099999999999909,65.2174
2013-08-28 0:18:24.019999999999982,64.5161
2013-08-28 0:18:24.950000000000045,63.8298
2013-08-28 0:18:25.8900000000001,59.4059
2013-08-28 0:18:26.900000000000091,59.4059
2013-08-28 0:18:27.910000000000082,63.1579
2013-08-28 0:18:28.8599999999999,63.1579
2013-08-28 0:18:29.809999999999945,65.2174
2013-08-28 0:18:30.730000000000018,62.5
2013-08-28 0:18:31.690000000000055,61.8557
2013-08-28 0:18:32.660000000000082,65.2174
2013-08-28 0:18:33.579999999999927,65.9341
2013-08-28 0:18:34.490000000000009,64.5161
2013-08-28 0:18:35.420000000000073,59.4059
2013-08-28 0:18:36.430000000000064,60.6061
2013-08-28 0:18:37.420000000000073,63.8298
2013-08-28 0:18:38.3599999999999,64.5161
2013-08-28 0:18:39.289999999999964,60.6061
2013-08-28 0:18:40.279999999999973,57.6923
2013-08-28 0:18:41.319999999999936,64.5161
2013-08-28 0:18:42.25,65.2174
2013-08-28 0:18:43.170000000000073,63.1579
2013-08-28 0:18:44.119999999999891,66.6667
2013-08-28 0:18:45.019999999999982,68.9655
2013-08-28 0:18:45.8900000000001,71.4286
2013-08-28 0:18:46.730000000000018,70.5882
2013-08-28 0:18:47.579999999999927,71.4286
2013-08-28 0:18:48.420000000000073,72.2892
2013-08-28 0:18:49.25,74.0741
2013-08-28 0:18:50.059999999999945,74.0741
2013-08-28 0:18:50.869999999999891,70.5882
2013-08-28 0:18:51.720000000000027,72.2892
2013-08-28 0:18:52.549999999999955,74.0741
2013-08-28 0:18:53.3599999999999,75.9494
2013-08-28 0:18:54.150000000000091,75.9494
2013-08-28 0:18:54.940000000000055,73.1707
2013-08-28 0:18:55.759999999999991,72.2892
2013-08-28 0:18:56.589999999999918,71.4286
2013-08-28 0:18:57.430000000000064,70.5882
2013-08-28 0:18:58.279999999999973,65.2174
2013-08-28 0:18:59.200000000000045,63.1579
2013-08-28 0:19:0.15000000000009095,59.4059
2013-08-28 0:19:1.1600000000000819,58.2524
2013-08-28 0:19:2.1900000000000546,60.6061
2013-08-28 0:19:3.1800000000000637,60.6061
2013-08-28 0:19:4.1700000000000728,55.5556
2013-08-28 0:19:7.5199999999999818,53.5714
2013-08-28 0:19:8.6400000000001,57.1429
2013-08-28 0:19:9.6900000000000546,59.4059
2013-08-28 0:19:10.700000000000045,56.6038
2013-08-28 0:19:11.759999999999991,56.6038
2013-08-28 0:19:12.819999999999936,58.2524
2013-08-28 0:19:13.849999999999909,60
2013-08-28 0:19:14.849999999999909,61.2245
2013-08-28 0:19:15.829999999999927,64.5161
2013-08-28 0:19:16.759999999999991,65.2174
2013-08-28 0:19:17.680000000000064,65.9341
2013-08-28 0:19:18.589999999999918,61.2245
2013-08-28 0:19:19.569999999999936,58.2524
2013-08-28 0:19:20.599999999999909,61.2245
2013-08-28 0:19:21.579999999999927,61.8557
2013-08-28 0:19:22.549999999999955,63.8298
2013-08-28 0:19:23.490000000000009,61.8557
2013-08-28 0:19:24.460000000000036,59.4059
2013-08-28 0:19:25.470000000000027,60
2013-08-28 0:19:26.470000000000027,64.5161
2013-08-28 0:19:27.400000000000091,66.6667
2013-08-28 0:19:28.299999999999955,67.4157
2013-08-28 0:19:29.190000000000055,62.5
2013-08-28 0:19:30.150000000000091,62.5
2013-08-28 0:19:31.1099999999999,65.2174
2013-08-28 0:19:32.029999999999973,65.9341
2013-08-28 0:19:32.940000000000055,66.6667
2013-08-28 0:19:33.839999999999918,64.5161
2013-08-28 0:19:34.769999999999982,63.8298
2013-08-28 0:19:35.710000000000036,66.6667
2013-08-28 0:19:36.6099999999999,67.4157
2013-08-28 0:19:37.5,66.6667
2013-08-28 0:19:38.400000000000091,67.4157
2013-08-28 0:19:39.289999999999964,70.5882
2013-08-28 0:19:40.1400000000001,71.4286
2013-08-28 0:19:40.980000000000018,71.4286
2013-08-28 0:19:41.819999999999936,74.0741
2013-08-28 0:19:42.630000000000109,75
2013-08-28 0:19:43.430000000000064,71.4286
2013-08-28 0:19:44.269999999999982,69.7674
2013-08-28 0:19:45.130000000000109,72.2892
2013-08-28 0:19:45.960000000000036,71.4286
2013-08-28 0:19:46.799999999999955,70.5882
2013-08-28 0:19:47.650000000000091,72.2892
2013-08-28 0:19:48.480000000000018,71.4286
2013-08-28 0:19:49.319999999999936,69.7674
2013-08-28 0:19:50.180000000000064,65.2174
2013-08-28 0:19:51.099999999999909,61.2245
2013-08-28 0:19:52.079999999999927,60.6061
2013-08-28 0:19:53.069999999999936,62.5
2013-08-28 0:19:54.029999999999973,62.5
2013-08-28 0:19:54.990000000000009,58.2524
2013-08-28 0:19:56.019999999999982,55.5556
2013-08-28 0:19:57.099999999999909,54.5455
2013-08-28 0:19:59.349999999999909,52.6316
2013-08-28 0:20:0.49000000000000909,56.6038
2013-08-28 0:20:1.5499999999999545,58.8235
2013-08-28 0:20:2.5699999999999363,55.5556
2013-08-28 0:20:3.6500000000000909,54.5455
2013-08-28 0:20:4.75,55.0459
2013-08-28 0:20:5.8399999999999181,54.5455
2013-08-28 0:20:6.9400000000000546,55.0459
2013-08-28 0:20:8.0299999999999727,58.8235
2013-08-28 0:20:9.0499999999999545,60.6061
2013-08-28 0:20:10.039999999999964,61.2245
2013-08-28 0:20:11.019999999999982,61.2245
2013-08-28 0:20:12.0,60.6061
2013-08-28 0:20:12.990000000000009,63.1579
2013-08-28 0:20:13.940000000000055,63.1579
2013-08-28 0:20:14.8900000000001,61.2245
2013-08-28 0:20:15.869999999999891,58.8235
2013-08-28 0:20:16.8900000000001,60
2013-08-28 0:20:17.8900000000001,62.5
2013-08-28 0:20:18.849999999999909,63.1579
2013-08-28 0:20:19.799999999999955,63.8298
2013-08-28 0:20:20.740000000000009,61.8557
2013-08-28 0:20:21.710000000000036,58.8235
2013-08-28 0:20:22.730000000000018,60.6061
2013-08-28 0:20:23.720000000000027,62.5
2013-08-28 0:20:24.680000000000064,64.5161
2013-08-28 0:20:25.6099999999999,64.5161
2013-08-28 0:20:26.539999999999964,59.4059
2013-08-28 0:20:27.549999999999955,60.6061
2013-08-28 0:20:28.539999999999964,63.1579
2013-08-28 0:20:29.490000000000009,64.5161
2013-08-28 0:20:30.420000000000073,65.9341
2013-08-28 0:20:31.329999999999927,62.5
2013-08-28 0:20:32.289999999999964,67.4157
2013-08-28 0:20:33.180000000000064,68.1818
2013-08-28 0:20:34.059999999999945,68.9655
2013-08-28 0:20:34.930000000000064,69.7674
2013-08-28 0:20:35.789999999999964,69.7674
2013-08-28 0:20:36.650000000000091,72.2892
2013-08-28 0:20:37.480000000000018,70.5882
2013-08-28 0:20:38.329999999999927,68.9655
2013-08-28 0:20:39.200000000000045,69.7674
2013-08-28 0:20:40.059999999999945,72.2892
2013-08-28 0:20:40.8900000000001,66.6667
2013-08-28 0:20:41.789999999999964,70.5882
2013-08-28 0:20:42.6400000000001,72.2892
2013-08-28 0:20:43.470000000000027,74.0741
2013-08-28 0:20:44.279999999999973,75.9494
2013-08-28 0:20:45.069999999999936,75
2013-08-28 0:20:45.869999999999891,74.0741
2013-08-28 0:20:46.680000000000064,75.9494
2013-08-28 0:20:47.470000000000027,74.0741
2013-08-28 0:20:48.279999999999973,71.4286
2013-08-28 0:20:49.119999999999891,68.1818
2013-08-28 0:20:50.0,65.9341
2013-08-28 0:20:50.910000000000082,62.5
2013-08-28 0:20:51.869999999999891,62.5
2013-08-28 0:20:52.829999999999927,62.5
2013-08-28 0:20:53.789999999999964,60
2013-08-28 0:20:54.789999999999964,58.2524
2013-08-28 0:20:55.819999999999936,55.5556
2013-08-28 0:20:56.900000000000091,56.0748
2013-08-28 0:20:57.970000000000027,55.5556
2013-08-28 0:20:59.049999999999955,55.5556
2013-08-28 0:21:0.13000000000010914,58.2524
2013-08-28 0:21:1.1600000000000819,60.6061
2013-08-28 0:21:2.1500000000000909,58.8235
2013-08-28 0:21:3.1700000000000728,58.2524
2013-08-28 0:21:4.2000000000000455,57.6923
2013-08-28 0:21:5.2400000000000091,56.6038
2013-08-28 0:21:6.2999999999999545,57.1429
2013-08-28 0:21:7.3499999999999091,60.6061
2013-08-28 0:21:8.3399999999999181,62.5
2013-08-28 0:21:9.2999999999999545,61.8557
2013-08-28 0:21:10.269999999999982,60
2013-08-28 0:21:11.269999999999982,61.2245
2013-08-28 0:21:12.25,62.5
2013-08-28 0:21:13.210000000000036,62.5
2013-08-28 0:21:14.170000000000073,60
2013-08-28 0:21:15.170000000000073,58.8235
2013-08-28 0:21:16.190000000000055,61.8557
2013-08-28 0:21:17.160000000000082,62.5
2013-08-28 0:21:18.119999999999891,64.5161
2013-08-28 0:21:19.049999999999955,60
2013-08-28 0:21:20.049999999999955,58.2524
2013-08-28 0:21:21.079999999999927,59.4059
2013-08-28 0:21:22.089999999999918,60.6061
2013-08-28 0:21:23.079999999999927,62.5
2013-08-28 0:21:24.039999999999964,60.6061
2013-08-28 0:21:25.029999999999973,58.2524
2013-08-28 0:21:26.059999999999945,55.5556
2013-08-28 0:21:27.1400000000001,62.5
2013-08-28 0:21:28.099999999999909,63.8298
2013-08-28 0:21:29.039999999999964,63.8298
2013-08-28 0:21:29.980000000000018,60.6061
2013-08-28 0:21:30.970000000000027,58.2524
2013-08-28 0:21:32.0,63.1579
2013-08-28 0:21:32.950000000000045,65.2174
2013-08-28 0:21:33.869999999999891,63.1579
2013-08-28 0:21:34.819999999999936,65.2174
2013-08-28 0:21:35.740000000000009,69.7674
2013-08-28 0:21:36.599999999999909,67.4157
2013-08-28 0:21:37.490000000000009,65.9341
2013-08-28 0:21:38.400000000000091,68.9655
2013-08-28 0:21:39.269999999999982,73.1707
2013-08-28 0:21:40.089999999999918,72.2892
2013-08-28 0:21:40.920000000000073,68.9655
2013-08-28 0:21:41.789999999999964,68.1818
2013-08-28 0:21:42.670000000000073,70.5882
2013-08-28 0:21:43.519999999999982,69.7674
2013-08-28 0:21:44.380000000000109,67.4157
2013-08-28 0:21:45.269999999999982,64.5161
2013-08-28 0:21:46.200000000000045,66.6667
2013-08-28 0:21:47.099999999999909,66.6667
2013-08-28 0:21:48.0,63.8298
2013-08-28 0:21:48.940000000000055,61.2245
2013-08-28 0:21:49.920000000000073,58.8235
2013-08-28 0:21:50.940000000000055,55.5556
2013-08-28 0:21:52.019999999999982,58.8235
2013-08-28 0:21:53.039999999999964,60.6061
2013-08-28 0:21:54.029999999999973,57.1429
2013-08-28 0:21:55.079999999999927,57.1429
2013-08-28 0:21:56.130000000000109,56.6038
2013-08-28 0:21:57.190000000000055,59.4059
2013-08-28 0:21:58.200000000000045,60
2013-08-28 0:21:59.200000000000045,59.4059
2013-08-28 0:22:0.21000000000003638,58.8235
2013-08-28 0:22:1.2300000000000182,58.8235
2013-08-28 0:22:2.25,57.1429
2013-08-28 0:22:3.2999999999999545,57.1429
2013-08-28 0:22:4.3499999999999091,58.2524
2013-08-28 0:22:5.3800000000001091,59.4059
2013-08-28 0:22:6.3900000000001,58.8235
2013-08-28 0:22:7.4100000000000819,58.8235
2013-08-28 0:22:8.4300000000000637,57.6923
2013-08-28 0:22:9.4700000000000273,57.1429
2013-08-28 0:22:10.519999999999982,59.4059
2013-08-28 0:22:11.529999999999973,61.2245
2013-08-28 0:22:12.509999999999991,63.1579
2013-08-28 0:22:13.460000000000036,60
2013-08-28 0:22:14.460000000000036,60.6061
2013-08-28 0:22:15.450000000000045,60
2013-08-28 0:22:16.450000000000045,61.8557
2013-08-28 0:22:17.420000000000073,63.1579
2013-08-28 0:22:18.369999999999891,59.4059
2013-08-28 0:22:19.380000000000109,57.1429
2013-08-28 0:22:20.430000000000064,58.2524
2013-08-28 0:22:21.460000000000036,62.5
2013-08-28 0:22:22.420000000000073,62.5
2013-08-28 0:22:23.380000000000109,61.8557
2013-08-28 0:22:24.349999999999909,58.2524
2013-08-28 0:22:25.380000000000109,56.6038
2013-08-28 0:22:26.440000000000055,61.8557
2013-08-28 0:22:27.410000000000082,63.8298
2013-08-28 0:22:28.349999999999909,63.1579
2013-08-28 0:22:29.299999999999955,61.2245
2013-08-28 0:22:30.279999999999973,61.8557
2013-08-28 0:22:31.25,65.2174
2013-08-28 0:22:32.170000000000073,65.2174
2013-08-28 0:22:33.089999999999918,60.6061
2013-08-28 0:22:34.079999999999927,58.8235
2013-08-28 0:22:35.099999999999909,64.5161
2013-08-28 0:22:36.029999999999973,65.2174
2013-08-28 0:22:36.950000000000045,60.6061
2013-08-28 0:22:37.940000000000055,58.2524
2013-08-28 0:22:38.970000000000027,62.5
2013-08-28 0:22:39.930000000000064,66.6667
2013-08-28 0:22:40.829999999999927,63.8298
2013-08-28 0:22:41.769999999999982,65.2174
2013-08-28 0:22:42.690000000000055,70.5882
2013-08-28 0:22:43.539999999999964,68.9655
2013-08-28 0:22:44.410000000000082,68.9655
2013-08-28 0:22:45.279999999999973,71.4286
2013-08-28 0:22:46.119999999999891,72.2892
2013-08-28 0:22:46.950000000000045,68.9655
2013-08-28 0:22:47.819999999999936,70.5882
2013-08-28 0:22:48.670000000000073,70.5882
2013-08-28 0:22:49.519999999999982,71.4286
2013-08-28 0:22:50.3599999999999,68.1818
2013-08-28 0:22:51.240000000000009,68.1818
2013-08-28 0:22:52.119999999999891,66.6667
2013-08-28 0:22:53.019999999999982,68.9655
2013-08-28 0:22:53.8900000000001,68.9655
2013-08-28 0:22:54.759999999999991,65.2174
2013-08-28 0:22:55.680000000000064,62.5
2013-08-28 0:22:56.6400000000001,60
2013-08-28 0:22:57.6400000000001,63.1579
2013-08-28 0:22:58.589999999999918,61.8557
2013-08-28 0:22:59.559999999999945,58.2524
2013-08-28 0:23:0.58999999999991815,55.5556
2013-08-28 0:23:1.6700000000000728,53.5714
2013-08-28 0:23:2.7899999999999636,52.6316
2013-08-28 0:23:3.9300000000000637,53.5714
2013-08-28 0:23:5.0499999999999545,54.5455
2013-08-28 0:23:6.1500000000000909,60.6061
2013-08-28 0:23:7.1400000000001,61.8557
2013-08-28 0:23:8.1099999999999,60.6061
2013-08-28 0:23:9.0999999999999091,60
2013-08-28 0:23:10.099999999999909,58.8235
2013-08-28 0:23:11.119999999999891,59.4059
2013-08-28 0:23:12.130000000000109,59.4059
2013-08-28 0:23:13.1400000000001,63.1579
2013-08-28 0:23:14.089999999999918,64.5161
2013-08-28 0:23:15.019999999999982,65.2174
2013-08-28 0:23:15.940000000000055,61.2245
2013-08-28 0:23:16.920000000000073,60.6061
2013-08-28 0:23:17.910000000000082,57.1429
2013-08-28 0:23:18.960000000000036,61.8557
2013-08-28 0:23:19.930000000000064,63.1579
2013-08-28 0:23:20.880000000000109,63.1579
2013-08-28 0:23:21.829999999999927,61.2245
2013-08-28 0:23:22.809999999999945,59.4059
2013-08-28 0:23:23.819999999999936,63.8298
2013-08-28 0:23:24.759999999999991,63.8298
2013-08-28 0:23:25.700000000000045,61.2245
2013-08-28 0:23:26.680000000000064,58.8235
2013-08-28 0:23:27.700000000000045,61.8557
2013-08-28 0:23:28.670000000000073,63.8298
2013-08-28 0:23:29.6099999999999,64.5161
2013-08-28 0:23:30.539999999999964,62.5
2013-08-28 0:23:31.5,61.2245
2013-08-28 0:23:32.480000000000018,63.8298
2013-08-28 0:23:33.420000000000073,67.4157
2013-08-28 0:23:34.309999999999945,63.1579
2013-08-28 0:23:35.259999999999991,61.8557
2013-08-28 0:23:36.230000000000018,61.8557
2013-08-28 0:23:37.200000000000045,68.9655
2013-08-28 0:23:38.069999999999936,66.6667
2013-08-28 0:23:38.970000000000027,65.2174
2013-08-28 0:23:39.8900000000001,69.7674
2013-08-28 0:23:40.75,69.7674
2013-08-28 0:23:41.6099999999999,68.9655
2013-08-28 0:23:42.480000000000018,69.7674
2013-08-28 0:23:43.339999999999918,72.2892
2013-08-28 0:23:44.170000000000073,69.7674
2013-08-28 0:23:45.029999999999973,69.7674
2013-08-28 0:23:45.8900000000001,71.4286
2013-08-28 0:23:46.730000000000018,71.4286
2013-08-28 0:23:47.569999999999936,75.9494
2013-08-28 0:23:48.3599999999999,71.4286
2013-08-28 0:23:49.200000000000045,69.7674
2013-08-28 0:23:50.059999999999945,69.7674
2013-08-28 0:23:50.920000000000073,68.1818
2013-08-28 0:23:51.799999999999955,68.1818
2013-08-28 0:23:52.680000000000064,68.9655
2013-08-28 0:23:53.549999999999955,67.4157
2013-08-28 0:23:54.440000000000055,65.2174
2013-08-28 0:23:55.3599999999999,60.6061
2013-08-28 0:23:56.349999999999909,57.1429
2013-08-28 0:23:57.400000000000091,55.5556
2013-08-28 0:23:58.480000000000018,58.8235
2013-08-28 0:23:59.5,61.8557
2013-08-28 0:24:0.47000000000002728,59.4059
2013-08-28 0:24:1.4800000000000182,58.8235
2013-08-28 0:24:2.5,59.4059
2013-08-28 0:24:3.5099999999999909,58.2524
2013-08-28 0:24:4.5399999999999636,58.8235
2013-08-28 0:24:5.5599999999999454,60.6061
2013-08-28 0:24:6.5499999999999545,63.8298
2013-08-28 0:24:7.4900000000000091,62.5
2013-08-28 0:24:8.4500000000000455,60.6061
2013-08-28 0:24:9.4400000000000546,57.6923
2013-08-28 0:24:10.480000000000018,59.4059
2013-08-28 0:24:11.490000000000009,61.8557
2013-08-28 0:24:12.460000000000036,61.8557
2013-08-28 0:24:13.430000000000064,57.6923
2013-08-28 0:24:14.470000000000027,56.0748
2013-08-28 0:24:15.539999999999964,55.0459
2013-08-28 0:24:16.630000000000109,58.2524
2013-08-28 0:24:17.660000000000082,61.8557
2013-08-28 0:24:18.630000000000109,63.8298
2013-08-28 0:24:19.569999999999936,60.6061
2013-08-28 0:24:20.559999999999945,60
2013-08-28 0:24:21.559999999999945,62.5
2013-08-28 0:24:22.519999999999982,63.1579
2013-08-28 0:24:23.470000000000027,59.4059
2013-08-28 0:24:24.480000000000018,57.6923
2013-08-28 0:24:25.519999999999982,56.0748
2013-08-28 0:24:26.589999999999918,62.5
2013-08-28 0:24:27.549999999999955,63.8298
2013-08-28 0:24:28.490000000000009,62.5
2013-08-28 0:24:29.450000000000045,59.4059
2013-08-28 0:24:30.460000000000036,61.8557
2013-08-28 0:24:31.430000000000064,65.9341
2013-08-28 0:24:32.339999999999918,63.8298
2013-08-28 0:24:33.279999999999973,64.5161
2013-08-28 0:24:34.210000000000036,61.2245
2013-08-28 0:24:35.190000000000055,64.5161
2013-08-28 0:24:36.119999999999891,68.9655
2013-08-28 0:24:36.990000000000009,65.2174
2013-08-28 0:24:37.910000000000082,63.1579
2013-08-28 0:24:38.8599999999999,63.1579
2013-08-28 0:24:39.809999999999945,69.7674
2013-08-28 0:24:40.670000000000073,67.4157
2013-08-28 0:24:41.559999999999945,68.1818
2013-08-28 0:24:42.440000000000055,72.2892
2013-08-28 0:24:43.269999999999982,69.7674
2013-08-28 0:24:44.130000000000109,70.5882
2013-08-28 0:24:44.980000000000018,72.2892
2013-08-28 0:24:45.809999999999945,70.5882
2013-08-28 0:24:46.660000000000082,71.4286
2013-08-28 0:24:47.5,74.0741
2013-08-28 0:24:48.309999999999945,71.4286
2013-08-28 0:24:49.150000000000091,71.4286
2013-08-28 0:24:49.990000000000009,73.1707
2013-08-28 0:24:50.809999999999945,76.9231
2013-08-28 0:24:51.589999999999918,75
2013-08-28 0:24:52.3900000000001,73.1707
2013-08-28 0:24:53.210000000000036,71.4286
2013-08-28 0:24:54.049999999999955,68.9655
2013-08-28 0:24:54.920000000000073,66.6667
2013-08-28 0:24:55.819999999999936,66.6667
2013-08-28 0:24:56.720000000000027,67.4157
2013-08-28 0:24:57.6099999999999,61.2245
2013-08-28 0:25:1.7999999999999545,55.5556
2013-08-28 0:25:2.8800000000001091,57.1429
2013-08-28 0:25:3.9300000000000637,58.2524
2013-08-28 0:25:4.9600000000000364,60
2013-08-28 0:25:5.9600000000000364,65.2174
2013-08-28 0:25:6.8800000000001091,63.1579
2013-08-28 0:25:7.8299999999999272,63.8298
2013-08-28 0:25:8.7699999999999818,62.5
2013-08-28 0:25:9.7300000000000182,63.8298
2013-08-28 0:25:10.670000000000073,62.5
2013-08-28 0:25:11.630000000000109,65.9341
2013-08-28 0:25:12.539999999999964,65.2174
2013-08-28 0:25:13.460000000000036,65.9341
2013-08-28 0:25:14.369999999999891,61.8557
2013-08-28 0:25:15.339999999999918,58.2524
2013-08-28 0:25:16.369999999999891,56.6038
2013-08-28 0:25:17.430000000000064,60
2013-08-28 0:25:18.430000000000064,61.2245
2013-08-28 0:25:19.410000000000082,61.8557
2013-08-28 0:25:20.380000000000109,57.1429
2013-08-28 0:25:21.430000000000064,53.0973
2013-08-28 0:25:22.559999999999945,58.2524
2013-08-28 0:25:23.589999999999918,61.2245
2013-08-28 0:25:24.569999999999936,63.1579
2013-08-28 0:25:25.519999999999982,58.8235
2013-08-28 0:25:26.539999999999964,58.2524
2013-08-28 0:25:27.569999999999936,61.2245
2013-08-28 0:25:28.549999999999955,63.8298
2013-08-28 0:25:29.490000000000009,65.2174
2013-08-28 0:25:30.410000000000082,61.2245
2013-08-28 0:25:31.3900000000001,60.6061
2013-08-28 0:25:32.380000000000109,65.2174
2013-08-28 0:25:33.299999999999955,68.1818
2013-08-28 0:25:34.180000000000064,63.1579
2013-08-28 0:25:35.130000000000109,61.8557
2013-08-28 0:25:36.099999999999909,62.5
2013-08-28 0:25:37.059999999999945,67.4157
2013-08-28 0:25:37.950000000000045,65.2174
2013-08-28 0:25:38.869999999999891,61.2245
2013-08-28 0:25:39.849999999999909,59.4059
2013-08-28 0:25:40.8599999999999,65.2174
2013-08-28 0:25:41.779999999999973,65.9341
2013-08-28 0:25:42.690000000000055,61.2245
2013-08-28 0:25:43.670000000000073,61.2245
2013-08-28 0:25:44.650000000000091,68.1818
2013-08-28 0:25:45.529999999999973,68.1818
2013-08-28 0:25:46.410000000000082,64.5161
2013-08-28 0:25:47.339999999999918,65.2174
2013-08-28 0:25:48.259999999999991,71.4286
2013-08-28 0:25:49.099999999999909,67.4157
2013-08-28 0:25:49.990000000000009,68.1818
2013-08-28 0:25:50.869999999999891,72.2892
2013-08-28 0:25:51.700000000000045,70.5882
2013-08-28 0:25:52.549999999999955,70.5882
2013-08-28 0:25:53.400000000000091,74.0741
2013-08-28 0:25:54.210000000000036,70.5882
2013-08-28 0:25:55.059999999999945,71.4286
2013-08-28 0:25:55.900000000000091,73.1707
2013-08-28 0:25:56.720000000000027,71.4286
2013-08-28 0:25:57.559999999999945,70.5882
2013-08-28 0:25:58.410000000000082,75
2013-08-28 0:25:59.210000000000036,74.0741
2013-08-28 0:26:0.01999999999998181,73.1707
2013-08-28 0:26:0.83999999999991815,70.5882
2013-08-28 0:26:1.6900000000000546,67.4157
2013-08-28 0:26:2.5799999999999272,69.7674
2013-08-28 0:26:3.4400000000000546,68.9655
2013-08-28 0:26:4.3099999999999454,65.2174
2013-08-28 0:26:5.2300000000000182,61.8557
2013-08-28 0:26:6.2000000000000455,58.8235
2013-08-28 0:26:10.549999999999955,53.0973
2013-08-28 0:26:11.680000000000064,56.0748
2013-08-28 0:26:12.75,57.1429
2013-08-28 0:26:13.799999999999955,58.2524
2013-08-28 0:26:14.829999999999927,58.8235
2013-08-28 0:26:15.849999999999909,60
2013-08-28 0:26:16.849999999999909,59.4059
2013-08-28 0:26:17.8599999999999,60.6061
2013-08-28 0:26:18.849999999999909,62.5
2013-08-28 0:26:19.809999999999945,61.8557
2013-08-28 0:26:20.779999999999973,62.5
2013-08-28 0:26:21.740000000000009,64.5161
2013-08-28 0:26:22.670000000000073,67.4157
2013-08-28 0:26:23.559999999999945,68.1818
2013-08-28 0:26:24.440000000000055,63.8298
2013-08-28 0:26:25.380000000000109,63.1579
2013-08-28 0:26:26.329999999999927,61.2245
2013-08-28 0:26:27.309999999999945,63.1579
2013-08-28 0:26:28.259999999999991,65.2174
2013-08-28 0:26:29.180000000000064,67.4157
2013-08-28 0:26:30.069999999999936,62.5
2013-08-28 0:26:31.029999999999973,61.8557
2013-08-28 0:26:32.0,58.8235
2013-08-28 0:26:33.019999999999982,61.8557
2013-08-28 0:26:33.990000000000009,63.1579
2013-08-28 0:26:34.940000000000055,58.8235
2013-08-28 0:26:35.960000000000036,58.2524
2013-08-28 0:26:36.990000000000009,61.2245
2013-08-28 0:26:37.970000000000027,64.5161
2013-08-28 0:26:38.900000000000091,65.9341
2013-08-28 0:26:39.809999999999945,63.8298
2013-08-28 0:26:40.75,63.1579
2013-08-28 0:26:41.700000000000045,68.1818
2013-08-28 0:26:42.579999999999927,66.6667
2013-08-28 0:26:43.480000000000018,63.1579
2013-08-28 0:26:44.430000000000064,63.1579
2013-08-28 0:26:45.380000000000109,61.2245
2013-08-28 0:26:46.3599999999999,65.2174
2013-08-28 0:26:47.279999999999973,68.1818
2013-08-28 0:26:48.160000000000082,61.8557
2013-08-28 0:26:49.130000000000109,61.8557
2013-08-28 0:26:50.099999999999909,65.9341
2013-08-28 0:26:51.009999999999991,68.9655
2013-08-28 0:26:51.880000000000109,62.5
2013-08-28 0:26:52.839999999999918,61.8557
2013-08-28 0:26:53.809999999999945,65.9341
2013-08-28 0:26:54.720000000000027,69.7674
2013-08-28 0:26:55.579999999999927,62.5
2013-08-28 0:26:56.539999999999964,61.2245
2013-08-28 0:26:57.519999999999982,67.4157
2013-08-28 0:26:58.410000000000082,68.9655
2013-08-28 0:26:59.279999999999973,66.6667
2013-08-28 0:27:0.18000000000006366,70.5882
2013-08-28 0:27:1.0299999999999727,70.5882
2013-08-28 0:27:1.8800000000001091,72.2892
2013-08-28 0:27:2.7100000000000364,72.2892
2013-08-28 0:27:3.5399999999999636,74.0741
2013-08-28 0:27:4.3499999999999091,71.4286
2013-08-28 0:27:5.1900000000000546,73.1707
2013-08-28 0:27:6.0099999999999909,75
2013-08-28 0:27:6.8099999999999454,72.2892
2013-08-28 0:27:7.6400000000001,72.2892
2013-08-28 0:27:8.4700000000000273,75.9494
2013-08-28 0:27:9.2599999999999909,75
2013-08-28 0:27:10.059999999999945,72.2892
2013-08-28 0:27:10.8900000000001,71.4286
2013-08-28 0:27:11.730000000000018,68.1818
2013-08-28 0:27:12.6099999999999,69.7674
2013-08-28 0:27:13.470000000000027,68.9655
2013-08-28 0:27:14.339999999999918,63.1579
2013-08-28 0:27:15.289999999999964,59.4059
2013-08-28 0:27:19.589999999999918,55.0459
2013-08-28 0:27:20.680000000000064,58.2524
2013-08-28 0:27:21.710000000000036,58.2524
2013-08-28 0:27:22.740000000000009,58.8235
2013-08-28 0:27:23.759999999999991,61.2245
2013-08-28 0:27:24.740000000000009,61.2245
2013-08-28 0:27:25.720000000000027,60.6061
2013-08-28 0:27:26.710000000000036,61.2245
2013-08-28 0:27:27.690000000000055,61.2245
2013-08-28 0:27:28.670000000000073,63.8298
2013-08-28 0:27:29.6099999999999,61.8557
2013-08-28 0:27:30.579999999999927,63.8298
2013-08-28 0:27:31.519999999999982,61.8557
2013-08-28 0:27:32.490000000000009,63.8298
2013-08-28 0:27:33.430000000000064,65.9341
2013-08-28 0:27:34.339999999999918,65.9341
2013-08-28 0:27:35.25,62.5
2013-08-28 0:27:36.210000000000036,58.2524
2013-08-28 0:27:37.240000000000009,54.5455
2013-08-28 0:27:38.339999999999918,60
2013-08-28 0:27:39.339999999999918,62.5
2013-08-28 0:27:40.299999999999955,63.8298
2013-08-28 0:27:41.240000000000009,59.4059
2013-08-28 0:27:42.25,58.8235
2013-08-28 0:27:43.269999999999982,60.6061
2013-08-28 0:27:44.259999999999991,64.5161
2013-08-28 0:27:45.190000000000055,65.2174
2013-08-28 0:27:46.1099999999999,60.6061
2013-08-28 0:27:47.099999999999909,60
2013-08-28 0:27:48.099999999999909,61.2245
2013-08-28 0:27:49.079999999999927,65.9341
2013-08-28 0:27:49.990000000000009,67.4157
2013-08-28 0:27:50.880000000000109,63.1579
2013-08-28 0:27:51.829999999999927,61.8557
2013-08-28 0:27:52.799999999999955,65.2174
2013-08-28 0:27:53.720000000000027,68.9655
2013-08-28 0:27:54.589999999999918,64.5161
2013-08-28 0:27:55.519999999999982,62.5
2013-08-28 0:27:56.480000000000018,65.2174
2013-08-28 0:27:57.400000000000091,68.9655
2013-08-28 0:27:58.269999999999982,66.6667
2013-08-28 0:27:59.170000000000073,65.2174
2013-08-28 0:28:0.089999999999918145,65.2174
2013-08-28 0:28:1.0099999999999909,70.5882
2013-08-28 0:28:1.8599999999999,70.5882
2013-08-28 0:28:2.7100000000000364,65.2174
2013-08-28 0:28:3.6300000000001091,64.5161
2013-08-28 0:28:4.5599999999999454,71.4286
2013-08-28 0:28:5.4000000000000909,68.9655
2013-08-28 0:28:6.2699999999999818,71.4286
2013-08-28 0:28:7.1099999999999,69.7674
2013-08-28 0:28:7.9700000000000273,73.1707
2013-08-28 0:28:8.7899999999999636,73.1707
2013-08-28 0:28:9.6099999999999,70.5882
2013-08-28 0:28:10.460000000000036,71.4286
2013-08-28 0:28:11.299999999999955,73.1707
2013-08-28 0:28:12.119999999999891,69.7674
2013-08-28 0:28:12.980000000000018,69.7674
2013-08-28 0:28:13.839999999999918,69.7674
2013-08-28 0:28:14.700000000000045,73.1707
2013-08-28 0:28:15.519999999999982,67.4157
2013-08-28 0:28:16.410000000000082,68.9655
2013-08-28 0:28:17.279999999999973,65.9341
2013-08-28 0:28:18.190000000000055,67.4157
2013-08-28 0:28:19.079999999999927,65.9341
2013-08-28 0:28:19.990000000000009,58.8235
2013-08-28 0:28:23.180000000000064,55.0459
2013-08-28 0:28:24.269999999999982,57.1429
2013-08-28 0:28:25.319999999999936,58.2524
2013-08-28 0:28:26.349999999999909,59.4059
2013-08-28 0:28:27.3599999999999,59.4059
2013-08-28 0:28:28.369999999999891,60
2013-08-28 0:28:29.369999999999891,60
2013-08-28 0:28:30.369999999999891,60
2013-08-28 0:28:31.369999999999891,59.4059
2013-08-28 0:28:32.380000000000109,60.6061
2013-08-28 0:28:33.369999999999891,63.1579
2013-08-28 0:28:34.319999999999936,64.5161
2013-08-28 0:28:35.25,63.1579
2013-08-28 0:28:36.200000000000045,62.5
2013-08-28 0:28:37.160000000000082,60
2013-08-28 0:28:38.160000000000082,60
2013-08-28 0:28:39.160000000000082,63.8298
2013-08-28 0:28:40.099999999999909,65.2174
2013-08-28 0:28:41.019999999999982,67.4157
2013-08-28 0:28:41.910000000000082,64.5161
2013-08-28 0:28:42.839999999999918,63.1579
2013-08-28 0:28:43.789999999999964,60
2013-08-28 0:28:44.789999999999964,63.8298
2013-08-28 0:28:45.730000000000018,65.2174
2013-08-28 0:28:46.650000000000091,61.8557
2013-08-28 0:28:47.619999999999891,60.6061
2013-08-28 0:28:48.6099999999999,63.1579
2013-08-28 0:28:49.559999999999945,66.6667
2013-08-28 0:28:50.460000000000036,65.9341
2013-08-28 0:28:51.369999999999891,64.5161
2013-08-28 0:28:52.299999999999955,61.2245
2013-08-28 0:28:53.279999999999973,68.9655
2013-08-28 0:28:54.150000000000091,68.9655
2013-08-28 0:28:55.019999999999982,65.2174
2013-08-28 0:28:55.940000000000055,65.2174
2013-08-28 0:28:56.8599999999999,67.4157
2013-08-28 0:28:57.75,71.4286
2013-08-28 0:28:58.589999999999918,65.9341
2013-08-28 0:28:59.5,64.5161
2013-08-28 0:29:0.43000000000006366,72.2892
2013-08-28 0:29:1.2599999999999909,67.4157
2013-08-28 0:29:2.1500000000000909,63.8298
2013-08-28 0:29:3.0899999999999181,64.5161
2013-08-28 0:29:4.0199999999999818,69.7674
2013-08-28 0:29:4.8800000000001091,65.2174
2013-08-28 0:29:5.7999999999999545,66.6667
2013-08-28 0:29:6.7000000000000455,74.0741
2013-08-28 0:29:7.5099999999999909,70.5882
2013-08-28 0:29:8.3599999999999,72.2892
2013-08-28 0:29:9.1900000000000546,75
2013-08-28 0:29:9.9900000000000091,74.0741
2013-08-28 0:29:10.799999999999955,74.0741
2013-08-28 0:29:11.6099999999999,75
2013-08-28 0:29:12.410000000000082,72.2892
2013-08-28 0:29:13.240000000000009,73.1707
2013-08-28 0:29:14.059999999999945,75
2013-08-28 0:29:14.8599999999999,73.1707
2013-08-28 0:29:15.680000000000064,74.0741
2013-08-28 0:29:16.490000000000009,77.9221
2013-08-28 0:29:17.259999999999991,73.1707
2013-08-28 0:29:18.079999999999927,74.0741
2013-08-28 0:29:18.8900000000001,73.1707
2013-08-28 0:29:19.710000000000036,72.2892
2013-08-28 0:29:20.539999999999964,72.2892
2013-08-28 0:29:21.369999999999891,72.2892
2013-08-28 0:29:22.200000000000045,68.9655
2013-08-28 0:29:23.069999999999936,65.9341
2013-08-28 0:29:23.980000000000018,65.2174
2013-08-28 0:29:24.900000000000091,61.2245
2013-08-28 0:29:25.880000000000109,60.6061
2013-08-28 0:29:26.869999999999891,63.1579
2013-08-28 0:29:27.819999999999936,61.8557
2013-08-28 0:29:28.789999999999964,60.6061
2013-08-28 0:29:29.779999999999973,60.6061
2013-08-28 0:29:30.769999999999982,60
2013-08-28 0:29:31.769999999999982,59.4059
2013-08-28 0:29:32.779999999999973,60
2013-08-28 0:29:33.779999999999973,61.2245
2013-08-28 0:29:34.759999999999991,60.6061
2013-08-28 0:29:35.75,60.6061
2013-08-28 0:29:36.740000000000009,61.2245
2013-08-28 0:29:37.720000000000027,61.2245
2013-08-28 0:29:38.700000000000045,63.1579
2013-08-28 0:29:39.650000000000091,65.9341
2013-08-28 0:29:40.559999999999945,69.7674
2013-08-28 0:29:41.420000000000073,64.5161
2013-08-28 0:29:42.349999999999909,63.8298
2013-08-28 0:29:43.289999999999964,61.8557
2013-08-28 0:29:44.259999999999991,67.4157
2013-08-28 0:29:45.150000000000091,69.7674
2013-08-28 0:29:46.009999999999991,70.5882
2013-08-28 0:29:46.8599999999999,65.9341
2013-08-28 0:29:47.769999999999982,63.8298
2013-08-28 0:29:48.710000000000036,61.8557
2013-08-28 0:29:49.680000000000064,65.2174
2013-08-28 0:29:50.599999999999909,66.6667
2013-08-28 0:29:51.5,64.5161
2013-08-28 0:29:52.430000000000064,61.8557
2013-08-28 0:29:53.400000000000091,65.2174
2013-08-28 0:29:54.319999999999936,68.9655
2013-08-28 0:29:55.190000000000055,68.9655
2013-08-28 0:29:56.059999999999945,65.2174
2013-08-28 0:29:56.980000000000018,64.5161
2013-08-28 0:29:57.910000000000082,70.5882
2013-08-28 0:29:58.759999999999991,68.1818
2013-08-28 0:29:59.6400000000001,66.6667
2013-08-28 0:30:0.53999999999996362,63.8298
2013-08-28 0:30:1.4800000000000182,63.8298
2013-08-28 0:30:2.4200000000000728,68.9655
2013-08-28 0:30:3.2899999999999636,66.6667
2013-08-28 0:30:4.1900000000000546,64.5161
2013-08-28 0:30:5.1199999999998909,62.5
2013-08-28 0:30:6.0799999999999272,68.9655
2013-08-28 0:30:6.9500000000000455,67.4157
2013-08-28 0:30:7.8399999999999181,65.2174
2013-08-28 0:30:8.7599999999999909,62.5
2013-08-28 0:30:9.7200000000000273,70.5882
2013-08-28 0:30:10.569999999999936,68.1818
2013-08-28 0:30:11.450000000000045,67.4157
2013-08-28 0:30:12.339999999999918,65.9341
2013-08-28 0:30:13.25,72.2892
2013-08-28 0:30:14.079999999999927,68.1818
2013-08-28 0:30:14.960000000000036,66.6667
2013-08-28 0:30:15.8599999999999,67.4157
2013-08-28 0:30:16.75,73.1707
2013-08-28 0:30:17.569999999999936,68.1818
2013-08-28 0:30:18.450000000000045,72.2892
2013-08-28 0:30:19.279999999999973,74.0741
2013-08-28 0:30:20.089999999999918,72.2892
2013-08-28 0:30:20.920000000000073,75.9494
2013-08-28 0:30:21.710000000000036,73.1707
2013-08-28 0:30:22.529999999999973,73.1707
2013-08-28 0:30:23.349999999999909,75
2013-08-28 0:30:24.150000000000091,72.2892
2013-08-28 0:30:24.980000000000018,73.1707
2013-08-28 0:30:25.799999999999955,77.9221
2013-08-28 0:30:26.569999999999936,75
2013-08-28 0:30:27.369999999999891,73.1707
2013-08-28 0:30:28.190000000000055,74.0741
2013-08-28 0:30:29.0,69.7674
2013-08-28 0:30:29.8599999999999,72.2892
2013-08-28 0:30:30.690000000000055,71.4286
2013-08-28 0:30:31.529999999999973,65.9341
2013-08-28 0:30:32.440000000000055,62.5
2013-08-28 0:30:39.029999999999973,55.0459
2013-08-28 0:30:40.119999999999891,57.1429
2013-08-28 0:30:41.170000000000073,59.4059
2013-08-28 0:30:42.180000000000064,61.2245
2013-08-28 0:30:43.160000000000082,65.2174
2013-08-28 0:30:44.079999999999927,65.9341
2013-08-28 0:30:44.990000000000009,64.5161
2013-08-28 0:30:45.920000000000073,62.5
2013-08-28 0:30:46.880000000000109,61.8557
2013-08-28 0:30:47.849999999999909,65.2174
2013-08-28 0:30:48.769999999999982,66.6667
2013-08-28 0:30:49.670000000000073,68.9655
2013-08-28 0:30:50.539999999999964,63.8298
2013-08-28 0:30:51.480000000000018,61.8557
2013-08-28 0:30:52.450000000000045,63.8298
2013-08-28 0:30:53.3900000000001,68.1818
2013-08-28 0:30:54.269999999999982,67.4157
2013-08-28 0:30:55.160000000000082,65.2174
2013-08-28 0:30:56.079999999999927,63.8298
2013-08-28 0:30:57.019999999999982,60
2013-08-28 0:30:58.019999999999982,68.1818
2013-08-28 0:30:58.900000000000091,67.4157
2013-08-28 0:30:59.789999999999964,63.8298
2013-08-28 0:31:0.73000000000001819,63.8298
2013-08-28 0:31:1.6700000000000728,64.5161
2013-08-28 0:31:2.5999999999999091,68.9655
2013-08-28 0:31:3.4700000000000273,67.4157
2013-08-28 0:31:4.3599999999999,66.6667
2013-08-28 0:31:5.2599999999999909,63.8298
2013-08-28 0:31:6.2000000000000455,68.9655
2013-08-28 0:31:7.0699999999999363,66.6667
2013-08-28 0:31:7.9700000000000273,66.6667
2013-08-28 0:31:8.8699999999998909,64.5161
2013-08-28 0:31:9.7999999999999545,68.1818
2013-08-28 0:31:10.680000000000064,71.4286
2013-08-28 0:31:11.519999999999982,67.4157
2013-08-28 0:31:12.410000000000082,68.1818
2013-08-28 0:31:13.289999999999964,71.4286
2013-08-28 0:31:14.130000000000109,72.2892
2013-08-28 0:31:14.960000000000036,66.6667
2013-08-28 0:31:15.8599999999999,69.7674
2013-08-28 0:31:16.720000000000027,74.0741
2013-08-28 0:31:17.529999999999973,70.5882
2013-08-28 0:31:18.380000000000109,72.2892
2013-08-28 0:31:19.210000000000036,76.9231
2013-08-28 0:31:19.990000000000009,70.5882
2013-08-28 0:31:20.839999999999918,75.9494
2013-08-28 0:31:21.630000000000109,75.9494
2013-08-28 0:31:22.420000000000073,75
2013-08-28 0:31:23.220000000000027,76.9231
2013-08-28 0:31:24.0,77.9221
2013-08-28 0:31:24.769999999999982,75
2013-08-28 0:31:25.569999999999936,74.0741
2013-08-28 0:31:26.380000000000109,72.2892
2013-08-28 0:31:27.210000000000036,75
2013-08-28 0:31:28.009999999999991,69.7674
2013-08-28 0:31:28.869999999999891,65.9341
2013-08-28 0:31:35.400000000000091,54.0541
2013-08-28 0:31:36.509999999999991,58.2524
2013-08-28 0:31:37.539999999999964,61.8557
2013-08-28 0:31:38.509999999999991,63.1579
2013-08-28 0:31:39.460000000000036,62.5
2013-08-28 0:31:40.420000000000073,64.5161
2013-08-28 0:31:41.349999999999909,63.8298
2013-08-28 0:31:42.289999999999964,65.2174
2013-08-28 0:31:43.210000000000036,67.4157
2013-08-28 0:31:44.099999999999909,68.9655
2013-08-28 0:31:44.970000000000027,68.9655
2013-08-28 0:31:45.839999999999918,65.9341
2013-08-28 0:31:46.75,65.2174
2013-08-28 0:31:47.670000000000073,63.1579
2013-08-28 0:31:48.619999999999891,65.9341
2013-08-28 0:31:49.529999999999973,68.1818
2013-08-28 0:31:50.410000000000082,68.9655
2013-08-28 0:31:51.279999999999973,63.1579
2013-08-28 0:31:52.230000000000018,63.1579
2013-08-28 0:31:53.180000000000064,66.6667
2013-08-28 0:31:54.079999999999927,68.1818
2013-08-28 0:31:54.960000000000036,66.6667
2013-08-28 0:31:55.8599999999999,63.8298
2013-08-28 0:31:56.799999999999955,62.5
2013-08-28 0:31:57.759999999999991,68.1818
2013-08-28 0:31:58.6400000000001,68.1818
2013-08-28 0:31:59.519999999999982,66.6667
2013-08-28 0:32:0.42000000000007276,66.6667
2013-08-28 0:32:1.3199999999999363,67.4157
2013-08-28 0:32:2.2100000000000364,72.2892
2013-08-28 0:32:3.0399999999999636,69.7674
2013-08-28 0:32:3.9000000000000909,69.7674
2013-08-28 0:32:4.7599999999999909,66.6667
2013-08-28 0:32:5.6600000000000819,71.4286
2013-08-28 0:32:6.5,71.4286
2013-08-28 0:32:7.3399999999999181,67.4157
2013-08-28 0:32:8.2300000000000182,67.4157
2013-08-28 0:32:9.1199999999998909,69.7674
2013-08-28 0:32:9.9800000000000182,73.1707
2013-08-28 0:32:10.799999999999955,69.7674
2013-08-28 0:32:11.660000000000082,69.7674
2013-08-28 0:32:12.519999999999982,66.6667
2013-08-28 0:32:13.420000000000073,71.4286
2013-08-28 0:32:14.259999999999991,68.9655
2013-08-28 0:32:15.130000000000109,69.7674
2013-08-28 0:32:15.990000000000009,73.1707
2013-08-28 0:32:16.809999999999945,73.1707
2013-08-28 0:32:17.630000000000109,73.1707
2013-08-28 0:32:18.450000000000045,75
2013-08-28 0:32:19.25,73.1707
2013-08-28 0:32:20.069999999999936,74.0741
2013-08-28 0:32:20.880000000000109,75.9494
2013-08-28 0:32:21.670000000000073,73.1707
2013-08-28 0:32:22.490000000000009,73.1707
2013-08-28 0:32:23.309999999999945,75
2013-08-28 0:32:24.1099999999999,76.9231
2013-08-28 0:32:24.8900000000001,72.2892
2013-08-28 0:32:25.720000000000027,71.4286
2013-08-28 0:32:26.559999999999945,68.1818
2013-08-28 0:32:27.440000000000055,61.8557
2013-08-28 0:32:28.410000000000082,63.1579
2013-08-28 0:32:29.3599999999999,65.2174
2013-08-28 0:32:30.279999999999973,63.1579
2013-08-28 0:32:31.230000000000018,63.8298
2013-08-28 0:32:32.170000000000073,66.6667
2013-08-28 0:32:33.069999999999936,71.4286
2013-08-28 0:32:33.910000000000082,76.9231
2013-08-28 0:32:34.690000000000055,74.0741
2013-08-28 0:32:35.5,75
2013-08-28 0:32:36.299999999999955,75
2013-08-28 0:32:37.099999999999909,75
2013-08-28 0:32:37.900000000000091,73.1707
2013-08-28 0:32:38.720000000000027,75
2013-08-28 0:32:39.519999999999982,75
2013-08-28 0:32:40.319999999999936,74.0741
2013-08-28 0:32:41.130000000000109,74.0741
2013-08-28 0:32:41.940000000000055,75
2013-08-28 0:32:42.740000000000009,75.9494
2013-08-28 0:32:43.529999999999973,76.9231
2013-08-28 0:32:44.309999999999945,77.9221
2013-08-28 0:32:45.079999999999927,78.9474
2013-08-28 0:32:45.839999999999918,80
2013-08-28 0:32:46.589999999999918,80
2013-08-28 0:32:47.339999999999918,81.0811
2013-08-28 0:32:48.079999999999927,83.3333
2013-08-28 0:32:48.799999999999955,82.1918
2013-08-28 0:32:49.529999999999973,83.3333
2013-08-28 0:32:51.670000000000073,84.507
2013-08-28 0:32:52.380000000000109,83.3333
2013-08-28 0:32:53.099999999999909,82.1918
2013-08-28 0:32:53.829999999999927,80
2013-08-28 0:32:54.579999999999927,77.9221
2013-08-28 0:32:55.349999999999909,76.9231
2013-08-28 0:32:56.130000000000109,75
2013-08-28 0:32:56.930000000000064,74.0741
2013-08-28 0:32:57.740000000000009,73.1707
2013-08-28 0:32:58.559999999999945,74.0741
2013-08-28 0:32:59.369999999999891,75.9494
2013-08-28 0:33:0.16000000000008185,75.9494
2013-08-28 0:33:0.95000000000004547,74.0741
2013-08-28 0:33:1.7599999999999909,75.9494
2013-08-28 0:33:2.5499999999999545,74.0741
2013-08-28 0:33:3.3599999999999,73.1707
2013-08-28 0:33:4.1800000000000637,71.4286
2013-08-28 0:33:5.0199999999999818,72.2892
2013-08-28 0:33:5.8499999999999091,69.7674
2013-08-28 0:33:6.7100000000000364,68.9655
2013-08-28 0:33:7.5799999999999272,70.5882
2013-08-28 0:33:10.829999999999927,80
2013-08-28 0:33:11.579999999999927,76.9231
2013-08-28 0:33:12.3599999999999,81.0811
2013-08-28 0:33:13.099999999999909,81.0811
2013-08-28 0:33:13.839999999999918,81.0811
2013-08-28 0:33:14.579999999999927,80
2013-08-28 0:33:15.329999999999927,77.9221
2013-08-28 0:33:16.099999999999909,76.9231
2013-08-28 0:33:16.880000000000109,74.0741
2013-08-28 0:33:17.690000000000055,75
2013-08-28 0:33:18.490000000000009,73.1707
2013-08-28 0:33:19.309999999999945,72.2892
2013-08-28 0:33:20.1400000000001,72.2892
2013-08-28 0:33:20.970000000000027,70.5882
2013-08-28 0:33:21.819999999999936,71.4286
2013-08-28 0:33:22.660000000000082,71.4286
2013-08-28 0:33:23.5,72.2892
2013-08-28 0:33:24.329999999999927,73.1707
2013-08-28 0:33:25.150000000000091,74.0741
2013-08-28 0:33:25.960000000000036,73.1707
2013-08-28 0:33:26.779999999999973,75
2013-08-28 0:33:27.579999999999927,74.0741
2013-08-28 0:33:28.3900000000001,75
2013-08-28 0:33:29.190000000000055,76.9231
2013-08-28 0:33:29.970000000000027,75
2013-08-28 0:33:30.769999999999982,75.9494
2013-08-28 0:33:31.559999999999945,75
2013-08-28 0:33:32.3599999999999,75.9494
2013-08-28 0:33:33.150000000000091,75
2013-08-28 0:33:33.950000000000045,75
2013-08-28 0:33:34.75,75
2013-08-28 0:33:35.549999999999955,75
2013-08-28 0:33:36.349999999999909,73.1707
2013-08-28 0:33:37.170000000000073,73.1707
2013-08-28 0:33:37.990000000000009,74.0741
2013-08-28 0:33:38.799999999999955,73.1707
2013-08-28 0:33:39.619999999999891,73.1707
2013-08-28 0:33:40.440000000000055,74.0741
2013-08-28 0:33:41.25,76.9231
2013-08-28 0:33:42.029999999999973,75.9494
2013-08-28 0:33:42.819999999999936,76.9231
2013-08-28 0:33:43.599999999999909,76.9231
2013-08-28 0:33:44.380000000000109,76.9231
2013-08-28 0:33:45.160000000000082,74.0741
2013-08-28 0:33:45.970000000000027,70.5882
2013-08-28 0:33:46.819999999999936,67.4157
2013-08-28 0:33:47.710000000000036,67.4157
2013-08-28 0:33:48.599999999999909,68.9655
2013-08-28 0:33:49.470000000000027,70.5882
2013-08-28 0:33:50.319999999999936,72.2892
2013-08-28 0:33:51.150000000000091,72.2892
2013-08-28 0:33:51.980000000000018,71.4286
2013-08-28 0:33:52.819999999999936,70.5882
2013-08-28 0:33:53.670000000000073,70.5882
2013-08-28 0:33:54.519999999999982,68.9655
2013-08-28 0:33:55.3900000000001,68.1818
2013-08-28 0:33:56.269999999999982,66.6667
2013-08-28 0:33:57.170000000000073,68.1818
2013-08-28 0:33:58.049999999999955,67.4157
2013-08-28 0:33:58.940000000000055,67.4157
2013-08-28 0:33:59.829999999999927,67.4157
2013-08-28 0:34:0.72000000000002728,67.4157
2013-08-28 0:34:1.6099999999999,66.6667
2013-08-28 0:34:2.5099999999999909,68.1818
2013-08-28 0:34:3.3900000000001,69.7674
2013-08-28 0:34:4.25,69.7674
2013-08-28 0:34:5.1099999999999,71.4286
2013-08-28 0:34:5.9500000000000455,70.5882
2013-08-28 0:34:6.7999999999999545,71.4286
2013-08-28 0:34:7.6400000000001,72.2892
2013-08-28 0:34:8.4699999999997999,73.1707
2013-08-28 0:34:9.2899999999999636,73.1707
2013-08-28 0:34:10.110000000000127,73.1707
2013-08-28 0:34:10.929999999999836,74.0741
2013-08-28 0:34:11.739999999999782,75.9494
2013-08-28 0:34:12.5300000000002,75.9494
2013-08-28 0:34:13.320000000000164,73.1707
2013-08-28 0:34:14.139999999999873,72.2892
2013-08-28 0:34:14.9699999999998,70.5882
2013-08-28 0:34:15.820000000000164,69.7674
2013-08-28 0:34:16.679999999999836,68.9655
2013-08-28 0:34:17.550000000000182,67.4157
2013-08-28 0:34:18.440000000000055,68.9655
2013-08-28 0:34:19.309999999999945,69.7674
2013-08-28 0:34:20.170000000000073,69.7674
2013-08-28 0:34:21.0300000000002,68.9655
2013-08-28 0:34:21.900000000000091,70.5882
2013-08-28 0:34:22.75,68.9655
2013-08-28 0:34:23.619999999999891,69.7674
2013-08-28 0:34:24.480000000000018,69.7674
2013-08-28 0:34:25.340000000000146,68.9655
2013-08-28 0:34:26.210000000000036,68.9655
2013-08-28 0:34:27.079999999999927,67.4157
2013-08-28 0:34:27.9699999999998,65.9341
2013-08-28 0:34:28.880000000000109,65.2174
2013-08-28 0:34:29.800000000000182,68.1818
2013-08-28 0:34:30.679999999999836,68.1818
2013-08-28 0:34:31.559999999999945,68.1818
2013-08-28 0:34:32.440000000000055,71.4286
2013-08-28 0:34:33.2800000000002,71.4286
2013-08-28 0:34:34.119999999999891,72.2892
2013-08-28 0:34:34.949999999999818,74.0741
2013-08-28 0:34:35.760000000000218,74.0741
2013-08-28 0:34:36.570000000000164,75
2013-08-28 0:34:37.369999999999891,75.9494
2013-08-28 0:34:38.159999999999854,75.9494
2013-08-28 0:34:38.949999999999818,74.0741
2013-08-28 0:34:39.760000000000218,75.9494
2013-08-28 0:34:40.550000000000182,74.0741
2013-08-28 0:34:41.360000000000127,71.4286
2013-08-28 0:34:42.199999999999818,69.7674
2013-08-28 0:34:43.059999999999945,68.9655
2013-08-28 0:34:43.929999999999836,65.9341
2013-08-28 0:34:44.840000000000146,63.8298
2013-08-28 0:34:45.7800000000002,63.1579
2013-08-28 0:34:46.730000000000018,64.5161
2013-08-28 0:34:47.659999999999854,65.2174
2013-08-28 0:34:48.579999999999927,65.2174
2013-08-28 0:34:49.5,67.4157
2013-08-28 0:34:50.389999999999873,68.1818
2013-08-28 0:34:51.269999999999982,68.1818
2013-08-28 0:34:52.150000000000091,68.9655
2013-08-28 0:34:53.019999999999982,70.5882
2013-08-28 0:34:53.869999999999891,67.4157
2013-08-28 0:34:54.760000000000218,65.2174
2013-08-28 0:34:55.679999999999836,67.4157
2013-08-28 0:34:56.570000000000164,65.2174
2013-08-28 0:34:57.489999999999782,64.5161
2013-08-28 0:34:58.420000000000073,63.1579
2013-08-28 0:34:59.369999999999891,65.9341
2013-08-28 0:35:0.28000000000020009,65.2174
2013-08-28 0:35:1.1999999999998181,65.2174
2013-08-28 0:35:2.1199999999998909,68.1818
2013-08-28 0:35:3.0,67.4157
2013-08-28 0:35:3.8899999999998727,68.1818
2013-08-28 0:35:4.7699999999999818,72.2892
2013-08-28 0:35:5.5999999999999091,74.0741
2013-08-28 0:35:6.4099999999998545,70.5882
2013-08-28 0:35:7.2600000000002183,69.7674
2013-08-28 0:35:8.1199999999998909,68.9655
2013-08-28 0:35:8.9899999999997817,66.6667
2013-08-28 0:35:9.8899999999998727,68.9655
2013-08-28 0:35:10.760000000000218,68.1818
2013-08-28 0:35:11.639999999999873,68.9655
2013-08-28 0:35:12.510000000000218,69.7674
2013-08-28 0:35:13.369999999999891,69.7674
2013-08-28 0:35:14.230000000000018,68.9655
2013-08-28 0:35:15.099999999999909,68.1818
2013-08-28 0:35:15.980000000000018,68.1818
2013-08-28 0:35:16.860000000000127,65.2174
2013-08-28 0:35:17.7800000000002,63.8298
2013-08-28 0:35:18.7199999999998,64.5161
2013-08-28 0:35:19.650000000000091,63.8298
2013-08-28 0:35:20.590000000000146,62.5
2013-08-28 0:35:21.550000000000182,61.8557
2013-08-28 0:35:22.519999999999982,63.8298
2013-08-28 0:35:23.460000000000036,65.2174
2013-08-28 0:35:24.380000000000109,63.8298
2013-08-28 0:35:25.320000000000164,62.5
2013-08-28 0:35:26.2800000000002,61.8557
2013-08-28 0:35:27.25,65.9341
2013-08-28 0:35:28.159999999999854,65.9341
2013-08-28 0:35:29.070000000000164,67.4157
2013-08-28 0:35:29.960000000000036,72.2892
2013-08-28 0:35:30.789999999999964,71.4286
2013-08-28 0:35:31.630000000000109,67.4157
2013-08-28 0:35:32.519999999999982,71.4286
2013-08-28 0:35:33.360000000000127,71.4286
2013-08-28 0:35:34.199999999999818,74.0741
2013-08-28 0:35:35.010000000000218,74.0741
2013-08-28 0:35:35.820000000000164,73.1707
2013-08-28 0:35:36.639999999999873,68.9655
2013-08-28 0:35:37.510000000000218,68.9655
2013-08-28 0:35:38.380000000000109,69.7674
2013-08-28 0:35:39.239999999999782,68.1818
2013-08-28 0:35:40.119999999999891,66.6667
2013-08-28 0:35:41.019999999999982,64.5161
2013-08-28 0:35:41.949999999999818,63.1579
2013-08-28 0:35:42.900000000000091,62.5
2013-08-28 0:35:43.860000000000127,61.8557
2013-08-28 0:35:44.829999999999927,61.2245
2013-08-28 0:35:45.809999999999945,61.2245
2013-08-28 0:35:46.789999999999964,61.8557
2013-08-28 0:35:47.760000000000218,63.1579
2013-08-28 0:35:48.710000000000036,63.1579
2013-08-28 0:35:49.659999999999854,61.8557
2013-08-28 0:35:50.630000000000109,61.2245
2013-08-28 0:35:51.610000000000127,60.6061
2013-08-28 0:35:52.599999999999909,60.6061
2013-08-28 0:35:53.590000000000146,61.8557
2013-08-28 0:35:54.559999999999945,61.2245
2013-08-28 0:35:55.539999999999964,60
2013-08-28 0:35:56.539999999999964,61.2245
2013-08-28 0:35:57.519999999999982,63.1579
2013-08-28 0:35:58.4699999999998,63.8298
2013-08-28 0:35:59.409999999999854,63.1579
2013-08-28 0:36:0.36000000000012733,61.8557
2013-08-28 0:36:1.3299999999999272,63.8298
2013-08-28 0:36:2.2699999999999818,65.9341
2013-08-28 0:36:3.1799999999998363,67.4157
2013-08-28 0:36:4.0700000000001637,68.9655
2013-08-28 0:36:4.9400000000000546,70.5882
2013-08-28 0:36:5.7899999999999636,71.4286
2013-08-28 0:36:6.6300000000001091,72.2892
2013-08-28 0:36:7.4600000000000364,69.7674
2013-08-28 0:36:8.3200000000001637,68.1818
2013-08-28 0:36:9.1999999999998181,68.9655
2013-08-28 0:36:10.070000000000164,68.1818
2013-08-28 0:36:10.949999999999818,68.1818
2013-08-28 0:36:11.829999999999927,68.1818
2013-08-28 0:36:12.710000000000036,68.1818
2013-08-28 0:36:13.590000000000146,70.5882
2013-08-28 0:36:14.440000000000055,70.5882
2013-08-28 0:36:15.289999999999964,72.2892
2013-08-28 0:36:16.119999999999891,72.2892
2013-08-28 0:36:16.949999999999818,73.1707
2013-08-28 0:36:17.769999999999982,73.1707
2013-08-28 0:36:18.590000000000146,72.2892
2013-08-28 0:36:19.420000000000073,70.5882
2013-08-28 0:36:20.269999999999982,72.2892
2013-08-28 0:36:21.099999999999909,69.7674
2013-08-28 0:36:21.960000000000036,71.4286
2013-08-28 0:36:22.800000000000182,72.2892
2013-08-28 0:36:23.630000000000109,73.1707
2013-08-28 0:36:24.449999999999818,74.0741
2013-08-28 0:36:25.260000000000218,75.9494
2013-08-28 0:36:26.050000000000182,75.9494
2013-08-28 0:36:26.840000000000146,76.9231
2013-08-28 0:36:27.619999999999891,77.9221
2013-08-28 0:36:28.389999999999873,77.9221
2013-08-28 0:36:29.159999999999854,76.9231
2013-08-28 0:36:29.940000000000055,76.9231
2013-08-28 0:36:30.7199999999998,77.9221
2013-08-28 0:36:31.489999999999782,77.9221
2013-08-28 0:36:32.260000000000218,77.9221
2013-08-28 0:36:33.0300000000002,78.9474
2013-08-28 0:36:33.789999999999964,78.9474
2013-08-28 0:36:34.550000000000182,80
2013-08-28 0:36:35.300000000000182,81.0811
2013-08-28 0:36:36.039999999999964,80
2013-08-28 0:36:36.789999999999964,78.9474
2013-08-28 0:36:37.550000000000182,76.9231
2013-08-28 0:36:38.329999999999927,75.9494
2013-08-28 0:36:39.119999999999891,75
2013-08-28 0:36:39.920000000000073,74.0741
2013-08-28 0:36:40.730000000000018,73.1707
2013-08-28 0:36:41.550000000000182,73.1707
2013-08-28 0:36:42.369999999999891,73.1707
2013-08-28 0:36:43.190000000000055,73.1707
2013-08-28 0:36:44.010000000000218,74.0741
2013-08-28 0:36:44.820000000000164,74.0741
2013-08-28 0:36:45.630000000000109,74.0741
2013-08-28 0:36:46.440000000000055,73.1707
2013-08-28 0:36:54.0,84.507
2013-08-28 0:36:54.710000000000036,84.507
2013-08-28 0:36:55.420000000000073,84.507
2013-08-28 0:36:56.130000000000109,83.3333
2013-08-28 0:36:56.849999999999909,82.1918
2013-08-28 0:36:57.579999999999927,81.0811
2013-08-28 0:36:58.320000000000164,80
2013-08-28 0:36:59.070000000000164,77.9221
2013-08-28 0:36:59.840000000000146,78.9474
2013-08-28 0:37:0.59999999999990905,76.9231
2013-08-28 0:37:1.3800000000001091,75.9494
2013-08-28 0:37:2.1700000000000728,75.9494
2013-08-28 0:37:2.9600000000000364,76.9231
2013-08-28 0:37:3.7399999999997817,76.9231
2013-08-28 0:37:4.5199999999999818,75.9494
2013-08-28 0:37:5.3099999999999454,75
2013-08-28 0:37:6.1100000000001273,75.9494
2013-08-28 0:37:6.9000000000000909,76.9231
2013-08-28 0:37:7.6799999999998363,75.9494
2013-08-28 0:37:8.4699999999997999,76.9231
2013-08-28 0:37:9.25,77.9221
2013-08-28 0:37:10.019999999999982,77.9221
2013-08-28 0:37:10.789999999999964,76.9231
2013-08-28 0:37:11.570000000000164,75.9494
2013-08-28 0:37:12.360000000000127,76.9231
2013-08-28 0:37:13.139999999999873,75
2013-08-28 0:37:13.940000000000055,77.9221
2013-08-28 0:37:14.710000000000036,76.9231
2013-08-28 0:37:15.489999999999782,75.9494
2013-08-28 0:37:16.2800000000002,75.9494
2013-08-28 0:37:17.070000000000164,75
2013-08-28 0:37:17.869999999999891,72.2892
2013-08-28 0:37:18.699999999999818,71.4286
2013-08-28 0:37:19.539999999999964,70.5882
2013-08-28 0:37:20.389999999999873,69.7674
2013-08-28 0:37:21.25,70.5882
2013-08-28 0:37:22.099999999999909,70.5882
2013-08-28 0:37:22.949999999999818,70.5882
2013-08-28 0:37:23.800000000000182,70.5882
2013-08-28 0:37:24.650000000000091,70.5882
2013-08-28 0:37:25.5,72.2892
2013-08-28 0:37:26.329999999999927,71.4286
2013-08-28 0:37:27.170000000000073,69.7674
2013-08-28 0:37:28.0300000000002,68.9655
2013-08-28 0:37:28.900000000000091,67.4157
2013-08-28 0:37:29.789999999999964,68.1818
2013-08-28 0:37:30.670000000000073,68.1818
2013-08-28 0:37:31.550000000000182,65.2174
2013-08-28 0:37:32.4699999999998,65.2174
2013-08-28 0:37:33.389999999999873,66.6667
2013-08-28 0:37:34.289999999999964,68.1818
2013-08-28 0:37:35.170000000000073,65.9341
2013-08-28 0:37:36.079999999999927,65.9341
2013-08-28 0:37:36.989999999999782,66.6667
2013-08-28 0:37:37.889999999999873,68.1818
2013-08-28 0:37:38.769999999999982,66.6667
2013-08-28 0:37:39.670000000000073,65.9341
2013-08-28 0:37:40.579999999999927,65.2174
2013-08-28 0:37:41.5,63.1579
2013-08-28 0:37:42.449999999999818,65.2174
2013-08-28 0:37:43.369999999999891,65.9341
2013-08-28 0:37:44.2800000000002,66.6667
2013-08-28 0:37:45.179999999999836,66.6667
2013-08-28 0:37:46.079999999999927,67.4157
2013-08-28 0:37:46.9699999999998,66.6667
2013-08-28 0:37:47.869999999999891,68.9655
2013-08-28 0:37:48.739999999999782,68.9655
2013-08-28 0:37:49.610000000000127,68.9655
2013-08-28 0:37:50.480000000000018,67.4157
2013-08-28 0:37:51.369999999999891,65.2174
2013-08-28 0:37:52.289999999999964,66.6667
2013-08-28 0:37:53.190000000000055,64.5161
2013-08-28 0:37:54.119999999999891,63.8298
2013-08-28 0:37:55.059999999999945,64.5161
2013-08-28 0:37:55.989999999999782,66.6667
2013-08-28 0:37:56.889999999999873,65.9341
2013-08-28 0:37:57.800000000000182,65.9341
2013-08-28 0:37:58.710000000000036,66.6667
2013-08-28 0:37:59.610000000000127,68.1818
2013-08-28 0:38:0.48999999999978172,68.1818
2013-08-28 0:38:1.3699999999998909,68.9655
2013-08-28 0:38:2.2399999999997817,70.5882
2013-08-28 0:38:3.0900000000001455,70.5882
2013-08-28 0:38:3.9400000000000546,70.5882
2013-08-28 0:38:4.7899999999999636,71.4286
2013-08-28 0:38:5.6300000000001091,70.5882
2013-08-28 0:38:6.4800000000000182,68.9655
2013-08-28 0:38:7.3499999999999091,69.7674
2013-08-28 0:38:8.2100000000000364,68.9655
2013-08-28 0:38:9.0799999999999272,69.7674
2013-08-28 0:38:9.9400000000000546,70.5882
2013-08-28 0:38:10.789999999999964,72.2892
2013-08-28 0:38:11.619999999999891,72.2892
2013-08-28 0:38:12.449999999999818,73.1707
2013-08-28 0:38:13.269999999999982,75
2013-08-28 0:38:14.070000000000164,76.9231
2013-08-28 0:38:14.849999999999909,75
2013-08-28 0:38:15.650000000000091,75
2013-08-28 0:38:16.449999999999818,75
2013-08-28 0:38:17.25,73.1707
2013-08-28 0:38:18.070000000000164,71.4286
2013-08-28 0:38:18.909999999999854,72.2892
2013-08-28 0:38:19.739999999999782,71.4286
2013-08-28 0:38:20.579999999999927,69.7674
2013-08-28 0:38:21.440000000000055,68.1818
2013-08-28 0:38:22.320000000000164,67.4157
2013-08-28 0:38:23.210000000000036,68.9655
2013-08-28 0:38:24.079999999999927,68.9655
2013-08-28 0:38:24.949999999999818,71.4286
2013-08-28 0:38:25.789999999999964,70.5882
2013-08-28 0:38:26.639999999999873,70.5882
2013-08-28 0:38:27.489999999999782,69.7674
2013-08-28 0:38:28.349999999999909,72.2892
2013-08-28 0:38:31.690000000000055,73.1707
2013-08-28 0:38:32.510000000000218,73.1707
2013-08-28 0:38:33.329999999999927,74.0741
2013-08-28 0:38:34.139999999999873,74.0741
2013-08-28 0:38:34.949999999999818,74.0741
2013-08-28 0:38:35.760000000000218,74.0741
2013-08-28 0:38:36.570000000000164,74.0741
2013-08-28 0:38:37.380000000000109,73.1707
2013-08-28 0:38:38.199999999999818,74.0741
2013-08-28 0:38:39.010000000000218,73.1707
2013-08-28 0:38:39.829999999999927,73.1707
2013-08-28 0:38:40.650000000000091,73.1707
2013-08-28 0:38:41.4699999999998,72.2892
2013-08-28 0:38:42.300000000000182,71.4286
2013-08-28 0:38:43.139999999999873,72.2892
2013-08-28 0:38:43.9699999999998,73.1707
2013-08-28 0:38:44.789999999999964,72.2892
2013-08-28 0:38:45.619999999999891,72.2892
2013-08-28 0:38:46.449999999999818,73.1707
2013-08-28 0:38:47.269999999999982,74.0741
2013-08-28 0:38:48.079999999999927,75
2013-08-28 0:38:48.880000000000109,75
2013-08-28 0:38:49.679999999999836,75.9494
2013-08-28 0:38:50.4699999999998,75
2013-08-28 0:38:51.269999999999982,75
2013-08-28 0:38:52.070000000000164,75
2013-08-28 0:38:52.869999999999891,75
2013-08-28 0:38:53.670000000000073,74.0741
2013-08-28 0:38:54.480000000000018,75
2013-08-28 0:38:55.2800000000002,75.9494
2013-08-28 0:38:56.070000000000164,75
2013-08-28 0:38:56.869999999999891,75
2013-08-28 0:38:57.670000000000073,77.9221
2013-08-28 0:38:58.440000000000055,76.9231
2013-08-28 0:38:59.2199999999998,76.9231
2013-08-28 0:39:0.0,77.9221
2013-08-28 0:39:0.76999999999998181,75.9494
2013-08-28 0:39:1.5599999999999454,77.9221
2013-08-28 0:39:2.3299999999999272,77.9221
2013-08-28 0:39:3.0999999999999091,78.9474
2013-08-28 0:39:3.8600000000001273,77.9221
2013-08-28 0:39:4.6300000000001091,78.9474
2013-08-28 0:39:5.3899999999998727,78.9474
2013-08-28 0:39:6.1500000000000909,78.9474
2013-08-28 0:39:6.9099999999998545,80
2013-08-28 0:39:7.6599999999998545,80
2013-08-28 0:39:8.4099999999998545,77.9221
2013-08-28 0:39:9.1799999999998363,77.9221
2013-08-28 0:39:9.9499999999998181,75.9494
2013-08-28 0:39:10.739999999999782,77.9221
2013-08-28 0:39:11.510000000000218,76.9231
2013-08-28 0:39:12.289999999999964,77.9221
2013-08-28 0:39:13.059999999999945,76.9231
2013-08-28 0:39:13.840000000000146,78.9474
2013-08-28 0:39:14.599999999999909,78.9474
2013-08-28 0:39:15.360000000000127,80
2013-08-28 0:39:16.110000000000127,80
2013-08-28 0:39:16.860000000000127,81.0811
2013-08-28 0:39:17.599999999999909,81.0811
2013-08-28 0:39:18.340000000000146,81.0811
2013-08-28 0:39:19.079999999999927,80
2013-08-28 0:39:19.829999999999927,80
2013-08-28 0:39:20.579999999999927,80
2013-08-28 0:39:21.329999999999927,78.9474
2013-08-28 0:39:22.090000000000146,78.9474
2013-08-28 0:39:22.849999999999909,77.9221
2013-08-28 0:39:23.619999999999891,77.9221
2013-08-28 0:39:24.389999999999873,77.9221
2013-08-28 0:39:25.159999999999854,76.9231
2013-08-28 0:39:25.940000000000055,77.9221
2013-08-28 0:39:26.710000000000036,76.9231
2013-08-28 0:39:27.489999999999782,78.9474
2013-08-28 0:39:28.25,78.9474
2013-08-28 0:39:29.010000000000218,78.9474
2013-08-28 0:39:29.769999999999982,78.9474
2013-08-28 0:39:30.5300000000002,80
2013-08-28 0:39:31.2800000000002,81.0811
2013-08-28 0:39:32.019999999999982,80
2013-08-28 0:39:32.769999999999982,80
2013-08-28 0:39:33.519999999999982,78.9474
2013-08-28 0:39:34.2800000000002,78.9474
2013-08-28 0:39:35.039999999999964,77.9221
2013-08-28 0:39:35.809999999999945,77.9221
2013-08-28 0:39:36.579999999999927,77.9221
2013-08-28 0:39:37.349999999999909,77.9221
2013-08-28 0:39:38.119999999999891,77.9221
2013-08-28 0:39:38.889999999999873,78.9474
2013-08-28 0:39:39.650000000000091,80
2013-08-28 0:39:40.400000000000091,77.9221
2013-08-28 0:39:43.2800000000002,85.7143
2013-08-28 0:39:43.980000000000018,88.2353
2013-08-28 0:39:44.659999999999854,89.5522
2013-08-28 0:39:45.329999999999927,88.2353
2013-08-28 0:39:46.010000000000218,88.2353
2013-08-28 0:39:46.690000000000055,86.9565
2013-08-28 0:39:47.380000000000109,84.507
2013-08-28 0:39:48.090000000000146,84.507
2013-08-28 0:39:48.800000000000182,84.507
2013-08-28 0:39:49.510000000000218,82.1918
2013-08-28 0:39:50.239999999999782,81.0811
2013-08-28 0:39:50.980000000000018,78.9474
2013-08-28 0:39:51.739999999999782,77.9221
2013-08-28 0:39:52.510000000000218,75.9494
2013-08-28 0:39:53.300000000000182,75.9494
2013-08-28 0:39:54.090000000000146,73.1707
2013-08-28 0:39:54.909999999999854,73.1707
2013-08-28 0:39:55.730000000000018,75.9494
2013-08-28 0:39:56.519999999999982,75.9494
2013-08-28 0:39:57.309999999999945,76.9231
2013-08-28 0:39:58.090000000000146,80
2013-08-28 0:39:58.840000000000146,78.9474
2013-08-28 0:39:59.599999999999909,80
2013-08-28 0:40:0.34999999999990905,78.9474
2013-08-28 0:40:1.1100000000001273,80
2013-08-28 0:40:1.8600000000001273,80
2013-08-28 0:40:2.6100000000001273,80
2013-08-28 0:40:3.3600000000001273,80
2013-08-28 0:40:4.1100000000001273,78.9474
2013-08-28 0:40:4.8699999999998909,81.0811
2013-08-28 0:40:5.6100000000001273,81.0811
2013-08-28 0:40:6.3499999999999091,80
2013-08-28 0:40:7.0999999999999091,81.0811
2013-08-28 0:40:7.8400000000001455,81.0811
2013-08-28 0:40:8.5799999999999272,81.0811
2013-08-28 0:40:9.3200000000001637,78.9474
2013-08-28 0:40:10.079999999999927,78.9474
2013-08-28 0:40:10.840000000000146,80
2013-08-28 0:40:11.590000000000146,77.9221
2013-08-28 0:40:12.360000000000127,78.9474
2013-08-28 0:40:13.119999999999891,78.9474
2013-08-28 0:40:13.880000000000109,80
2013-08-28 0:40:14.630000000000109,80
2013-08-28 0:40:15.380000000000109,80
2013-08-28 0:40:16.130000000000109,80
2013-08-28 0:40:16.880000000000109,81.0811
2013-08-28 0:40:17.619999999999891,82.1918
2013-08-28 0:40:18.349999999999909,80
2013-08-28 0:40:19.099999999999909,82.1918
2013-08-28 0:40:19.829999999999927,82.1918
2013-08-28 0:40:20.559999999999945,82.1918
2013-08-28 0:40:21.289999999999964,80
2013-08-28 0:40:22.039999999999964,78.9474
2013-08-28 0:40:22.800000000000182,77.9221
2013-08-28 0:40:23.570000000000164,77.9221
2013-08-28 0:40:24.340000000000146,75.9494
2013-08-28 0:40:25.130000000000109,74.0741
2013-08-28 0:40:25.940000000000055,75
2013-08-28 0:40:26.739999999999782,72.2892
2013-08-28 0:40:27.570000000000164,71.4286
2013-08-28 0:40:28.409999999999854,69.7674
2013-08-28 0:40:29.269999999999982,70.5882
2013-08-28 0:40:30.119999999999891,69.7674
2013-08-28 0:40:30.980000000000018,68.9655
2013-08-28 0:40:31.849999999999909,68.1818
2013-08-28 0:40:32.730000000000018,69.7674
2013-08-28 0:40:33.590000000000146,68.1818
2013-08-28 0:40:34.4699999999998,67.4157
2013-08-28 0:40:35.360000000000127,65.9341
2013-08-28 0:40:36.269999999999982,67.4157
2013-08-28 0:40:37.159999999999854,63.1579
2013-08-28 0:40:38.110000000000127,62.5
2013-08-28 0:40:39.070000000000164,62.5
2013-08-28 0:40:40.0300000000002,61.8557
2013-08-28 0:40:41.0,61.8557
2013-08-28 0:40:41.9699999999998,61.8557
2013-08-28 0:40:42.940000000000055,63.8298
2013-08-28 0:40:43.880000000000109,63.8298
2013-08-28 0:40:44.820000000000164,63.1579
2013-08-28 0:40:45.769999999999982,63.8298
2013-08-28 0:40:48.449999999999818,73.1707
2013-08-28 0:40:49.269999999999982,74.0741
2013-08-28 0:40:50.079999999999927,71.4286
2013-08-28 0:40:50.920000000000073,72.2892
2013-08-28 0:40:51.75,73.1707
2013-08-28 0:40:52.570000000000164,75.9494
2013-08-28 0:40:53.360000000000127,72.2892
2013-08-28 0:40:54.190000000000055,73.1707
2013-08-28 0:40:55.010000000000218,73.1707
2013-08-28 0:40:55.829999999999927,75
2013-08-28 0:40:56.630000000000109,75.9494
2013-08-28 0:40:57.420000000000073,75
2013-08-28 0:40:58.2199999999998,75
2013-08-28 0:40:59.019999999999982,75.9494
2013-08-28 0:40:59.809999999999945,74.0741
2013-08-28 0:41:0.61999999999989086,73.1707
2013-08-28 0:41:1.4400000000000546,73.1707
2013-08-28 0:41:2.2600000000002183,71.4286
2013-08-28 0:41:3.0999999999999091,68.1818
2013-08-28 0:41:3.9800000000000182,66.6667
2013-08-28 0:41:4.8800000000001091,65.9341
2013-08-28 0:41:5.7899999999999636,65.9341
2013-08-28 0:41:6.6999999999998181,63.8298
2013-08-28 0:41:7.6399999999998727,61.2245
2013-08-28 0:41:8.6199999999998909,62.5
2013-08-28 0:41:9.5799999999999272,65.9341
2013-08-28 0:41:10.489999999999782,65.9341
2013-08-28 0:41:11.400000000000091,68.1818
2013-08-28 0:41:12.2800000000002,68.9655
2013-08-28 0:41:13.150000000000091,67.4157
2013-08-28 0:41:14.039999999999964,69.7674
2013-08-28 0:41:14.900000000000091,68.1818
2013-08-28 0:41:15.7800000000002,68.1818
2013-08-28 0:41:16.659999999999854,68.1818
2013-08-28 0:41:17.539999999999964,67.4157
2013-08-28 0:41:18.429999999999836,68.1818
2013-08-28 0:41:19.309999999999945,67.4157
2013-08-28 0:41:20.199999999999818,68.9655
2013-08-28 0:41:21.070000000000164,68.1818
2013-08-28 0:41:21.949999999999818,69.7674
2013-08-28 0:41:22.809999999999945,69.7674
2013-08-28 0:41:23.670000000000073,71.4286
2013-08-28 0:41:24.510000000000218,72.2892
2013-08-28 0:41:25.340000000000146,72.2892
2013-08-28 0:41:26.170000000000073,75
2013-08-28 0:41:26.9699999999998,70.5882
2013-08-28 0:41:27.820000000000164,70.5882
2013-08-28 0:41:28.670000000000073,70.5882
2013-08-28 0:41:29.519999999999982,72.2892
2013-08-28 0:41:30.349999999999909,69.7674
2013-08-28 0:41:31.210000000000036,70.5882
2013-08-28 0:41:32.059999999999945,70.5882
2013-08-28 0:41:32.909999999999854,71.4286
2013-08-28 0:41:33.75,72.2892
2013-08-28 0:41:34.579999999999927,70.5882
2013-08-28 0:41:35.429999999999836,70.5882
2013-08-28 0:41:36.2800000000002,67.4157
2013-08-28 0:41:37.170000000000073,65.2174
2013-08-28 0:41:38.090000000000146,61.8557
2013-08-28 0:41:39.059999999999945,62.5
2013-08-28 0:41:40.019999999999982,62.5
2013-08-28 0:41:40.980000000000018,61.2245
2013-08-28 0:41:41.960000000000036,60.6061
2013-08-28 0:41:42.949999999999818,60
2013-08-28 0:41:43.949999999999818,62.5
2013-08-28 0:41:44.909999999999854,63.8298
2013-08-28 0:41:45.849999999999909,62.5
2013-08-28 0:41:46.809999999999945,72.2892
2013-08-28 0:41:49.7800000000002,61.8557
2013-08-28 0:41:50.75,61.8557
2013-08-28 0:41:51.7199999999998,61.8557
2013-08-28 0:41:52.690000000000055,63.8298
2013-08-28 0:41:53.630000000000109,64.5161
2013-08-28 0:41:54.559999999999945,60.6061
2013-08-28 0:41:55.550000000000182,61.8557
2013-08-28 0:41:56.519999999999982,60.6061
2013-08-28 0:41:57.510000000000218,63.1579
2013-08-28 0:41:58.460000000000036,62.5
2013-08-28 0:41:59.420000000000073,62.5
2013-08-28 0:42:0.38000000000010914,62.5
2013-08-28 0:42:1.3400000000001455,62.5
2013-08-28 0:42:2.3000000000001819,65.2174
2013-08-28 0:42:3.2199999999997999,65.9341
2013-08-28 0:42:4.1300000000001091,64.5161
2013-08-28 0:42:5.0599999999999454,63.8298
2013-08-28 0:42:6.0,64.5161
2013-08-28 0:42:6.9299999999998363,65.9341
2013-08-28 0:42:7.8400000000001455,65.2174
2013-08-28 0:42:8.7600000000002183,63.1579
2013-08-28 0:42:9.7100000000000364,62.5
2013-08-28 0:42:10.670000000000073,63.8298
2013-08-28 0:42:11.610000000000127,65.2174
2013-08-28 0:42:12.5300000000002,62.5
2013-08-28 0:42:13.489999999999782,62.5
2013-08-28 0:42:14.449999999999818,62.5
2013-08-28 0:42:15.409999999999854,64.5161
2013-08-28 0:42:16.340000000000146,64.5161
2013-08-28 0:42:17.269999999999982,63.8298
2013-08-28 0:42:18.210000000000036,61.8557
2013-08-28 0:42:19.179999999999836,62.5
2013-08-28 0:42:20.139999999999873,63.8298
2013-08-28 0:42:21.079999999999927,63.1579
2013-08-28 0:42:22.0300000000002,64.5161
2013-08-28 0:42:22.960000000000036,66.6667
2013-08-28 0:42:23.860000000000127,65.9341
2013-08-28 0:42:24.769999999999982,66.6667
2013-08-28 0:42:25.670000000000073,65.9341
2013-08-28 0:42:26.579999999999927,68.1818
2013-08-28 0:42:27.460000000000036,69.7674
2013-08-28 0:42:28.320000000000164,67.4157
2013-08-28 0:42:29.210000000000036,68.9655
2013-08-28 0:42:30.079999999999927,68.9655
2013-08-28 0:42:30.949999999999818,65.2174
2013-08-28 0:42:31.869999999999891,63.8298
2013-08-28 0:42:32.809999999999945,61.2245
2013-08-28 0:42:33.789999999999964,62.5
2013-08-28 0:42:34.75,63.1579
2013-08-28 0:42:35.699999999999818,60
2013-08-28 0:42:36.699999999999818,59.4059
2013-08-28 0:42:37.710000000000036,58.8235
2013-08-28 0:42:38.730000000000018,61.8557
2013-08-28 0:42:39.699999999999818,62.5
2013-08-28 0:42:40.659999999999854,61.8557
2013-08-28 0:42:41.630000000000109,60.6061
2013-08-28 0:42:42.619999999999891,62.5
2013-08-28 0:42:43.579999999999927,63.1579
2013-08-28 0:42:44.5300000000002,63.1579
2013-08-28 0:42:45.480000000000018,61.8557
2013-08-28 0:42:46.449999999999818,60.6061
2013-08-28 0:42:47.440000000000055,63.8298
2013-08-28 0:42:48.380000000000109,63.1579
2013-08-28 0:42:49.329999999999927,60.6061
2013-08-28 0:42:50.320000000000164,60.6061
2013-08-28 0:42:51.309999999999945,60.6061
2013-08-28 0:42:52.300000000000182,63.1579
2013-08-28 0:42:53.25,63.8298
2013-08-28 0:42:54.190000000000055,61.2245
2013-08-28 0:42:55.170000000000073,61.8557
2013-08-28 0:42:56.139999999999873,61.8557
2013-08-28 0:42:57.110000000000127,63.8298
2013-08-28 0:42:58.050000000000182,64.5161
2013-08-28 0:42:58.980000000000018,62.5
2013-08-28 0:42:59.940000000000055,61.8557
2013-08-28 0:43:0.90999999999985448,62.5
2013-08-28 0:43:1.8699999999998909,64.5161
2013-08-28 0:43:2.8000000000001819,65.2174
2013-08-28 0:43:3.7199999999997999,63.8298
2013-08-28 0:43:4.6599999999998545,62.5
2013-08-28 0:43:5.6199999999998909,63.1579
2013-08-28 0:43:6.5700000000001637,63.8298
2013-08-28 0:43:7.5100000000002183,65.9341
2013-08-28 0:43:8.4200000000000728,65.9341
2013-08-28 0:43:9.3299999999999272,64.5161
2013-08-28 0:43:10.260000000000218,63.1579
2013-08-28 0:43:11.210000000000036,63.1579
2013-08-28 0:43:12.159999999999854,65.2174
2013-08-28 0:43:13.079999999999927,67.4157
2013-08-28 0:43:13.9699999999998,66.6667
2013-08-28 0:43:14.869999999999891,68.1818
2013-08-28 0:43:15.75,69.7674
2013-08-28 0:43:16.610000000000127,71.4286
2013-08-28 0:43:17.449999999999818,68.1818
2013-08-28 0:43:18.329999999999927,68.9655
2013-08-28 0:43:19.199999999999818,68.1818
2013-08-28 0:43:20.079999999999927,63.8298
2013-08-28 0:43:21.019999999999982,61.2245
2013-08-28 0:43:22.0,61.8557
2013-08-28 0:43:22.9699999999998,63.8298
2013-08-28 0:43:23.909999999999854,63.1579
2013-08-28 0:43:24.860000000000127,61.2245
2013-08-28 0:43:25.840000000000146,60.6061
2013-08-28 0:43:26.829999999999927,62.5
2013-08-28 0:43:27.789999999999964,64.5161
2013-08-28 0:43:28.7199999999998,62.5
2013-08-28 0:43:29.679999999999836,61.2245
2013-08-28 0:43:30.659999999999854,61.2245
2013-08-28 0:43:31.639999999999873,63.1579
2013-08-28 0:43:32.590000000000146,60.6061
2013-08-28 0:43:33.579999999999927,58.2524
2013-08-28 0:43:34.610000000000127,58.2524
2013-08-28 0:43:35.639999999999873,60.6061
2013-08-28 0:43:36.630000000000109,62.5
2013-08-28 0:43:37.590000000000146,61.2245
2013-08-28 0:43:38.570000000000164,61.8557
2013-08-28 0:43:39.539999999999964,60.6061
2013-08-28 0:43:40.5300000000002,63.8298
2013-08-28 0:43:41.4699999999998,65.2174
2013-08-28 0:43:42.389999999999873,63.1579
2013-08-28 0:43:43.340000000000146,61.8557
2013-08-28 0:43:44.309999999999945,61.8557
2013-08-28 0:43:45.2800000000002,62.5
2013-08-28 0:43:46.239999999999782,63.1579
2013-08-28 0:43:47.190000000000055,61.2245
2013-08-28 0:43:48.170000000000073,59.4059
2013-08-28 0:43:49.179999999999836,60
2013-08-28 0:43:50.179999999999836,63.1579
2013-08-28 0:43:51.130000000000109,63.8298
2013-08-28 0:43:52.070000000000164,63.1579
2013-08-28 0:43:53.019999999999982,61.8557
2013-08-28 0:43:53.989999999999782,61.8557
2013-08-28 0:43:54.960000000000036,63.1579
2013-08-28 0:43:55.909999999999854,63.8298
2013-08-28 0:43:56.849999999999909,61.2245
2013-08-28 0:43:57.829999999999927,60
2013-08-28 0:43:58.829999999999927,61.2245
2013-08-28 0:43:59.809999999999945,63.1579
2013-08-28 0:44:0.76000000000021828,63.8298
2013-08-28 0:44:1.6999999999998181,61.2245
2013-08-28 0:44:2.6799999999998363,61.8557
2013-08-28 0:44:3.6500000000000909,61.2245
2013-08-28 0:44:4.6300000000001091,63.8298
2013-08-28 0:44:5.5700000000001637,63.1579
2013-08-28 0:44:6.5199999999999818,61.8557
2013-08-28 0:44:7.4899999999997817,61.2245
2013-08-28 0:44:8.4699999999997999,60.6061
2013-08-28 0:44:9.4600000000000364,63.8298
2013-08-28 0:44:10.400000000000091,64.5161
2013-08-28 0:44:11.329999999999927,61.8557
2013-08-28 0:44:12.300000000000182,62.5
2013-08-28 0:44:13.260000000000218,62.5
2013-08-28 0:44:14.2199999999998,63.8298
2013-08-28 0:44:15.159999999999854,64.5161
2013-08-28 0:44:16.090000000000146,63.1579
2013-08-28 0:44:17.039999999999964,61.8557
2013-08-28 0:44:18.010000000000218,61.2245
2013-08-28 0:44:18.989999999999782,63.8298
2013-08-28 0:44:19.929999999999836,63.8298
2013-08-28 0:44:20.869999999999891,61.8557
2013-08-28 0:44:21.840000000000146,61.2245
2013-08-28 0:44:22.820000000000164,60.6061
2013-08-28 0:44:23.809999999999945,63.8298
2013-08-28 0:44:24.75,64.5161
2013-08-28 0:44:25.679999999999836,63.1579
2013-08-28 0:44:26.630000000000109,63.1579
2013-08-28 0:44:27.579999999999927,62.5
2013-08-28 0:44:28.539999999999964,63.8298
2013-08-28 0:44:29.480000000000018,65.2174
2013-08-28 0:44:30.400000000000091,63.1579
2013-08-28 0:44:31.349999999999909,61.8557
2013-08-28 0:44:32.320000000000164,60
2013-08-28 0:44:33.320000000000164,62.5
2013-08-28 0:44:34.2800000000002,63.8298
2013-08-28 0:44:35.2199999999998,61.2245
2013-08-28 0:44:36.199999999999818,60.6061
2013-08-28 0:44:37.190000000000055,60.6061
2013-08-28 0:44:38.179999999999836,62.5
2013-08-28 0:44:39.139999999999873,64.5161
2013-08-28 0:44:40.070000000000164,61.8557
2013-08-28 0:44:41.039999999999964,61.2245
2013-08-28 0:44:42.019999999999982,62.5
2013-08-28 0:44:42.980000000000018,63.1579
2013-08-28 0:44:43.929999999999836,63.8298
2013-08-28 0:44:44.869999999999891,61.2245
2013-08-28 0:44:45.849999999999909,60.6061
2013-08-28 0:44:46.840000000000146,60
2013-08-28 0:44:47.840000000000146,62.5
2013-08-28 0:44:48.800000000000182,63.1579
2013-08-28 0:44:49.75,61.2245
2013-08-28 0:44:50.730000000000018,59.4059
2013-08-28 0:44:51.739999999999782,58.8235
2013-08-28 0:44:52.760000000000218,61.8557
2013-08-28 0:44:53.730000000000018,63.1579
2013-08-28 0:44:54.679999999999836,60.6061
2013-08-28 0:44:55.670000000000073,59.4059
2013-08-28 0:44:56.679999999999836,58.8235
2013-08-28 0:44:57.699999999999818,62.5
2013-08-28 0:44:58.659999999999854,63.1579
2013-08-28 0:44:59.610000000000127,61.8557
2013-08-28 0:45:0.57999999999992724,62.5
2013-08-28 0:45:1.5399999999999636,60.6061
2013-08-28 0:45:2.5300000000002001,63.8298
2013-08-28 0:45:3.4699999999997999,63.1579
2013-08-28 0:45:4.4200000000000728,61.8557
2013-08-28 0:45:5.3899999999998727,61.2245
2013-08-28 0:45:6.3699999999998909,62.5
2013-08-28 0:45:7.3299999999999272,62.5
2013-08-28 0:45:8.2899999999999636,63.8298
2013-08-28 0:45:9.2300000000000182,61.8557
2013-08-28 0:45:10.199999999999818,61.2245
2013-08-28 0:45:11.179999999999836,63.8298
2013-08-28 0:45:12.119999999999891,64.5161
2013-08-28 0:45:13.050000000000182,62.5
2013-08-28 0:45:14.010000000000218,62.5
2013-08-28 0:45:14.9699999999998,63.1579
2013-08-28 0:45:15.920000000000073,64.5161
2013-08-28 0:45:16.849999999999909,65.2174
2013-08-28 0:45:17.769999999999982,63.8298
2013-08-28 0:45:18.710000000000036,63.1579
2013-08-28 0:45:19.659999999999854,62.5
2013-08-28 0:45:20.619999999999891,63.8298
2013-08-28 0:45:21.559999999999945,62.5
2013-08-28 0:45:22.519999999999982,61.2245
2013-08-28 0:45:23.5,60.6061
2013-08-28 0:45:24.489999999999782,60.6061
2013-08-28 0:45:25.480000000000018,63.1579
2013-08-28 0:45:26.429999999999836,63.1579
2013-08-28 0:45:27.380000000000109,61.8557
2013-08-28 0:45:28.349999999999909,61.8557
2013-08-28 0:45:29.320000000000164,62.5
2013-08-28 0:45:30.2800000000002,64.5161
2013-08-28 0:45:31.210000000000036,63.8298
2013-08-28 0:45:32.150000000000091,61.8557
2013-08-28 0:45:33.119999999999891,60.6061
2013-08-28 0:45:34.110000000000127,59.4059
2013-08-28 0:45:35.119999999999891,61.8557
2013-08-28 0:45:36.090000000000146,61.8557
2013-08-28 0:45:37.059999999999945,59.4059
2013-08-28 0:45:38.070000000000164,58.8235
2013-08-28 0:45:39.090000000000146,59.4059
2013-08-28 0:45:40.099999999999909,61.8557
2013-08-28 0:45:41.070000000000164,63.8298
2013-08-28 0:45:42.010000000000218,62.5
2013-08-28 0:45:42.9699999999998,61.8557
2013-08-28 0:45:43.940000000000055,61.8557
2013-08-28 0:45:44.909999999999854,62.5
2013-08-28 0:45:45.869999999999891,63.8298
2013-08-28 0:45:46.809999999999945,62.5
2013-08-28 0:45:47.769999999999982,61.8557
2013-08-28 0:45:48.739999999999782,61.2245
2013-08-28 0:45:49.7199999999998,63.8298
2013-08-28 0:45:50.659999999999854,63.8298
2013-08-28 0:45:51.599999999999909,62.5
2013-08-28 0:45:52.559999999999945,63.1579
2013-08-28 0:45:53.510000000000218,62.5
