Time,Datapoint
2013-08-28 0:0:6.7599999999999998,69.7674
2013-08-28 0:0:7.6200000000000001,68.9655
2013-08-28 0:0:8.4900000000000002,65.2174
2013-08-28 0:0:9.4100000000000001,63.1579
2013-08-28 0:0:10.359999999999999,64.5161
2013-08-28 0:0:11.289999999999999,65.2174
2013-08-28 0:0:12.210000000000001,63.1579
2013-08-28 0:0:13.16,62.5
2013-08-28 0:0:14.119999999999999,65.2174
2013-08-28 0:0:15.039999999999999,65.9341
2013-08-28 0:0:15.949999999999999,65.2174
2013-08-28 0:0:16.870000000000001,65.2174
2013-08-28 0:0:17.789999999999999,64.5161
2013-08-28 0:0:18.719999999999999,66.6667
2013-08-28 0:0:19.620000000000001,68.9655
2013-08-28 0:0:20.489999999999998,69.7674
2013-08-28 0:0:21.350000000000001,68.9655
2013-08-28 0:0:22.219999999999999,68.9655
2013-08-28 0:0:25.66,70.5882
2013-08-28 0:0:26.510000000000002,70.5882
2013-08-28 0:0:27.359999999999999,72.2892
2013-08-28 0:0:28.190000000000001,73.1707
2013-08-28 0:0:29.010000000000002,72.2892
2013-08-28 0:0:29.84,71.4286
2013-08-28 0:0:30.68,70.5882
2013-08-28 0:0:31.530000000000001,71.4286
2013-08-28 0:0:32.369999999999997,72.2892
2013-08-28 0:0:33.200000000000003,70.5882
2013-08-28 0:0:34.049999999999997,69.7674
2013-08-28 0:0:34.909999999999997,73.1707
2013-08-28 0:0:38.299999999999997,71.4286
2013-08-28 0:0:39.140000000000001,73.1707
2013-08-28 0:0:39.960000000000001,73.1707
2013-08-28 0:0:40.780000000000001,71.4286
2013-08-28 0:0:41.619999999999997,70.5882
2013-08-28 0:0:42.469999999999999,71.4286
2013-08-28 0:0:43.310000000000002,71.4286
2013-08-28 0:0:44.149999999999999,71.4286
2013-08-28 0:0:44.990000000000002,70.5882
2013-08-28 0:0:45.840000000000003,70.5882
2013-08-28 0:0:49.189999999999998,74.0741
2013-08-28 0:0:50.0,75.9494
2013-08-28 0:0:50.789999999999999,76.9231
2013-08-28 0:0:51.57,75.9494
2013-08-28 0:0:52.359999999999999,80
2013-08-28 0:0:53.109999999999999,74.0741
2013-08-28 0:0:53.920000000000002,75
2013-08-28 0:0:54.719999999999999,74.0741
2013-08-28 0:0:55.530000000000001,73.1707
2013-08-28 0:0:56.350000000000001,73.1707
2013-08-28 0:0:57.170000000000002,73.1707
2013-08-28 0:0:57.990000000000002,71.4286
2013-08-28 0:0:58.829999999999998,71.4286
2013-08-28 0:0:59.670000000000002,72.2892
2013-08-28 0:1:0.5,73.1707
2013-08-28 0:1:1.3200000000000003,72.2892
2013-08-28 0:1:2.1499999999999986,71.4286
2013-08-28 0:1:2.990000000000002,71.4286
2013-08-28 0:1:3.8299999999999983,71.4286
2013-08-28 0:1:4.6700000000000017,72.2892
2013-08-28 0:1:5.5,70.5882
2013-08-28 0:1:6.3499999999999943,69.7674
2013-08-28 0:1:7.2099999999999937,68.1818
2013-08-28 0:1:8.0900000000000034,70.5882
2013-08-28 0:1:8.9399999999999977,71.4286
2013-08-28 0:1:9.7800000000000011,72.2892
2013-08-28 0:1:10.609999999999999,71.4286
2013-08-28 0:1:11.450000000000003,71.4286
2013-08-28 0:1:12.290000000000006,74.0741
2013-08-28 0:1:13.099999999999994,76.9231
2013-08-28 0:1:13.879999999999995,75
2013-08-28 0:1:14.680000000000007,78.9474
2013-08-28 0:1:15.439999999999998,75
2013-08-28 0:1:16.239999999999995,77.9221
2013-08-28 0:1:19.280000000000001,81.0811
2013-08-28 0:1:20.019999999999996,81.0811
2013-08-28 0:1:20.760000000000005,81.0811
2013-08-28 0:1:21.5,80
2013-08-28 0:1:22.25,77.9221
2013-08-28 0:1:23.019999999999996,77.9221
2013-08-28 0:1:23.790000000000006,76.9231
2013-08-28 0:1:24.569999999999993,75
2013-08-28 0:1:25.370000000000005,76.9231
2013-08-28 0:1:26.150000000000006,76.9231
2013-08-28 0:1:26.930000000000007,74.0741
2013-08-28 0:1:27.739999999999995,73.1707
2013-08-28 0:1:28.560000000000002,70.5882
2013-08-28 0:1:35.310000000000002,66.6667
2013-08-28 0:1:36.209999999999994,66.6667
2013-08-28 0:1:37.109999999999999,65.2174
2013-08-28 0:1:38.030000000000001,65.2174
2013-08-28 0:1:38.950000000000003,63.1579
2013-08-28 0:1:39.900000000000006,63.1579
2013-08-28 0:1:40.849999999999994,64.5161
2013-08-28 0:1:41.780000000000001,61.8557
2013-08-28 0:1:42.75,60
2013-08-28 0:1:43.75,59.4059
2013-08-28 0:1:44.760000000000005,60.6061
2013-08-28 0:1:45.75,59.4059
2013-08-28 0:1:46.760000000000005,57.1429
2013-08-28 0:1:47.810000000000002,57.1429
2013-08-28 0:1:48.859999999999999,61.2245
2013-08-28 0:1:49.840000000000003,64.5161
2013-08-28 0:1:50.769999999999996,64.5161
2013-08-28 0:1:51.700000000000003,64.5161
2013-08-28 0:1:52.629999999999995,65.9341
2013-08-28 0:1:53.540000000000006,68.1818
2013-08-28 0:1:54.420000000000002,69.7674
2013-08-28 0:1:55.280000000000001,68.9655
2013-08-28 0:1:56.150000000000006,68.9655
2013-08-28 0:1:57.019999999999996,67.4157
2013-08-28 0:1:57.909999999999997,69.7674
2013-08-28 0:1:58.769999999999996,69.7674
2013-08-28 0:1:59.629999999999995,69.7674
2013-08-28 0:2:0.48999999999999488,69.7674
2013-08-28 0:2:1.3499999999999943,69.7674
2013-08-28 0:2:2.2099999999999937,68.9655
2013-08-28 0:2:3.0799999999999983,70.5882
2013-08-28 0:2:3.9300000000000068,70.5882
2013-08-28 0:2:4.7800000000000011,69.7674
2013-08-28 0:2:5.6400000000000006,69.7674
2013-08-28 0:2:6.5,69.7674
2013-08-28 0:2:7.3599999999999994,71.4286
2013-08-28 0:2:8.1999999999999886,69.7674
2013-08-28 0:2:9.0600000000000023,68.9655
2013-08-28 0:2:9.9300000000000068,67.4157
2013-08-28 0:2:10.819999999999993,67.4157
2013-08-28 0:2:11.710000000000008,67.4157
2013-08-28 0:2:12.599999999999994,64.5161
2013-08-28 0:2:13.530000000000001,63.8298
2013-08-28 0:2:14.469999999999999,64.5161
2013-08-28 0:2:15.400000000000006,65.9341
2013-08-28 0:2:16.310000000000002,65.9341
2013-08-28 0:2:17.219999999999999,63.8298
2013-08-28 0:2:18.159999999999997,64.5161
2013-08-28 0:2:19.090000000000003,65.2174
2013-08-28 0:2:20.009999999999991,66.6667
2013-08-28 0:2:20.909999999999997,68.1818
2013-08-28 0:2:21.789999999999992,66.6667
2013-08-28 0:2:22.689999999999998,65.9341
2013-08-28 0:2:23.599999999999994,67.4157
2013-08-28 0:2:24.490000000000009,68.9655
2013-08-28 0:2:25.360000000000014,68.1818
2013-08-28 0:2:26.240000000000009,66.6667
2013-08-28 0:2:27.139999999999986,66.6667
2013-08-28 0:2:28.039999999999992,68.1818
2013-08-28 0:2:28.919999999999987,69.7674
2013-08-28 0:2:29.780000000000001,67.4157
2013-08-28 0:2:30.669999999999987,65.2174
2013-08-28 0:2:31.590000000000003,65.2174
2013-08-28 0:2:32.509999999999991,65.9341
2013-08-28 0:2:33.419999999999987,66.6667
2013-08-28 0:2:34.319999999999993,65.9341
2013-08-28 0:2:35.22999999999999,65.9341
2013-08-28 0:2:36.139999999999986,65.9341
2013-08-28 0:2:37.050000000000011,68.1818
2013-08-28 0:2:37.930000000000007,68.9655
2013-08-28 0:2:38.800000000000011,71.4286
2013-08-28 0:2:39.639999999999986,73.1707
2013-08-28 0:2:40.460000000000008,75.9494
2013-08-28 0:2:41.25,75.9494
2013-08-28 0:2:42.039999999999992,75.9494
2013-08-28 0:2:42.830000000000013,74.0741
2013-08-28 0:2:43.639999999999986,73.1707
2013-08-28 0:2:44.460000000000008,70.5882
2013-08-28 0:2:45.310000000000002,72.2892
2013-08-28 0:2:46.139999999999986,72.2892
2013-08-28 0:2:46.969999999999999,71.4286
2013-08-28 0:2:47.810000000000002,69.7674
2013-08-28 0:2:48.669999999999987,70.5882
2013-08-28 0:2:49.52000000000001,71.4286
2013-08-28 0:2:50.360000000000014,71.4286
2013-08-28 0:2:51.199999999999989,69.7674
2013-08-28 0:2:52.060000000000002,69.7674
2013-08-28 0:2:52.919999999999987,68.9655
2013-08-28 0:2:53.789999999999992,67.4157
2013-08-28 0:2:54.680000000000007,65.9341
2013-08-28 0:2:55.590000000000003,66.6667
2013-08-28 0:2:56.490000000000009,65.9341
2013-08-28 0:2:57.400000000000006,66.6667
2013-08-28 0:2:58.300000000000011,68.1818
2013-08-28 0:2:59.180000000000007,68.1818
2013-08-28 0:3:0.060000000000002274,66.6667
2013-08-28 0:3:0.96000000000000796,68.1818
2013-08-28 0:3:1.8400000000000034,67.4157
2013-08-28 0:3:2.7299999999999898,66.6667
2013-08-28 0:3:3.6299999999999955,62.5
2013-08-28 0:3:4.5900000000000034,57.1429
2013-08-28 0:3:5.6399999999999864,58.2524
2013-08-28 0:3:6.6699999999999875,61.2245
2013-08-28 0:3:7.6500000000000057,58.2524
2013-08-28 0:3:8.6800000000000068,62.5
2013-08-28 0:3:9.6399999999999864,67.4157
2013-08-28 0:3:10.530000000000001,65.9341
2013-08-28 0:3:11.439999999999998,68.1818
2013-08-28 0:3:12.319999999999993,71.4286
2013-08-28 0:3:13.159999999999997,71.4286
2013-08-28 0:3:14.0,68.9655
2013-08-28 0:3:14.870000000000005,72.2892
2013-08-28 0:3:15.699999999999989,73.1707
2013-08-28 0:3:16.52000000000001,73.1707
2013-08-28 0:3:17.340000000000003,74.0741
2013-08-28 0:3:18.150000000000006,74.0741
2013-08-28 0:3:18.960000000000008,75
2013-08-28 0:3:19.759999999999991,75
2013-08-28 0:3:20.560000000000002,74.0741
2013-08-28 0:3:21.370000000000005,76.9231
2013-08-28 0:3:22.150000000000006,76.9231
2013-08-28 0:3:22.930000000000007,75.9494
2013-08-28 0:3:23.719999999999999,76.9231
2013-08-28 0:3:24.5,76.9231
2013-08-28 0:3:25.280000000000001,76.9231
2013-08-28 0:3:26.060000000000002,76.9231
2013-08-28 0:3:26.840000000000003,75.9494
2013-08-28 0:3:27.629999999999995,75.9494
2013-08-28 0:3:28.419999999999987,75.9494
2013-08-28 0:3:29.210000000000008,75.9494
2013-08-28 0:3:30.0,74.0741
2013-08-28 0:3:30.810000000000002,73.1707
2013-08-28 0:3:31.629999999999995,74.0741
2013-08-28 0:3:32.439999999999998,74.0741
2013-08-28 0:3:33.25,74.0741
2013-08-28 0:3:34.060000000000002,75
2013-08-28 0:3:34.860000000000014,73.1707
2013-08-28 0:3:35.680000000000007,75
2013-08-28 0:3:36.47999999999999,75.9494
2013-08-28 0:3:37.27000000000001,74.0741
2013-08-28 0:3:38.080000000000013,75
2013-08-28 0:3:38.879999999999995,75
2013-08-28 0:3:39.680000000000007,74.0741
2013-08-28 0:3:40.490000000000009,74.0741
2013-08-28 0:3:41.300000000000011,74.0741
2013-08-28 0:3:42.110000000000014,70.5882
2013-08-28 0:3:42.960000000000008,68.9655
2013-08-28 0:3:43.830000000000013,68.9655
2013-08-28 0:3:44.699999999999989,69.7674
2013-08-28 0:3:45.560000000000002,70.5882
2013-08-28 0:3:46.409999999999997,69.7674
2013-08-28 0:3:47.27000000000001,66.6667
2013-08-28 0:3:48.169999999999987,65.9341
2013-08-28 0:3:49.080000000000013,65.9341
2013-08-28 0:3:49.990000000000009,68.1818
2013-08-28 0:3:50.870000000000005,70.5882
2013-08-28 0:3:51.719999999999999,73.1707
2013-08-28 0:3:52.539999999999992,72.2892
2013-08-28 0:3:53.370000000000005,71.4286
2013-08-28 0:3:54.210000000000008,70.5882
2013-08-28 0:3:55.060000000000002,70.5882
2013-08-28 0:3:55.909999999999997,70.5882
2013-08-28 0:3:56.759999999999991,70.5882
2013-08-28 0:3:57.610000000000014,71.4286
2013-08-28 0:3:58.449999999999989,72.2892
2013-08-28 0:3:59.280000000000001,71.4286
2013-08-28 0:4:0.12000000000000455,68.9655
2013-08-28 0:4:0.99000000000000909,68.9655
2013-08-28 0:4:1.8600000000000136,69.7674
2013-08-28 0:4:2.7199999999999989,68.9655
2013-08-28 0:4:3.5900000000000034,71.4286
2013-08-28 0:4:4.4300000000000068,71.4286
2013-08-28 0:4:5.2700000000000102,74.0741
2013-08-28 0:4:6.0800000000000125,72.2892
2013-08-28 0:4:6.9099999999999966,72.2892
2013-08-28 0:4:7.7400000000000091,72.2892
2013-08-28 0:4:8.5699999999999932,73.1707
2013-08-28 0:4:9.3899999999999864,71.4286
2013-08-28 0:4:10.22999999999999,70.5882
2013-08-28 0:4:11.080000000000013,68.9655
2013-08-28 0:4:11.949999999999989,65.2174
2013-08-28 0:4:12.870000000000005,63.8298
2013-08-28 0:4:13.810000000000002,65.2174
2013-08-28 0:4:14.72999999999999,65.2174
2013-08-28 0:4:15.650000000000006,65.9341
2013-08-28 0:4:16.560000000000002,65.9341
2013-08-28 0:4:17.470000000000027,67.4157
2013-08-28 0:4:18.360000000000014,67.4157
2013-08-28 0:4:19.25,68.1818
2013-08-28 0:4:20.129999999999995,68.9655
2013-08-28 0:4:21.0,68.9655
2013-08-28 0:4:21.870000000000005,71.4286
2013-08-28 0:4:22.70999999999998,74.0741
2013-08-28 0:4:23.519999999999982,76.9231
2013-08-28 0:4:25.029999999999973,82.1918
2013-08-28 0:4:25.759999999999991,80
2013-08-28 0:4:26.509999999999991,83.3333
2013-08-28 0:4:27.230000000000018,81.0811
2013-08-28 0:4:27.970000000000027,80
2013-08-28 0:4:28.720000000000027,77.9221
2013-08-28 0:4:29.490000000000009,75
2013-08-28 0:4:30.29000000000002,73.1707
2013-08-28 0:4:31.110000000000014,72.2892
2013-08-28 0:4:31.939999999999998,71.4286
2013-08-28 0:4:32.779999999999973,70.5882
2013-08-28 0:4:33.629999999999995,70.5882
2013-08-28 0:4:34.480000000000018,69.7674
2013-08-28 0:4:35.339999999999975,67.4157
2013-08-28 0:4:36.230000000000018,65.2174
2013-08-28 0:4:37.149999999999977,61.8557
2013-08-28 0:4:38.120000000000005,61.8557
2013-08-28 0:4:39.089999999999975,65.2174
2013-08-28 0:4:40.009999999999991,65.2174
2013-08-28 0:4:40.930000000000007,66.6667
2013-08-28 0:4:41.829999999999984,69.7674
2013-08-28 0:4:42.689999999999998,68.9655
2013-08-28 0:4:43.560000000000002,71.4286
2013-08-28 0:4:44.399999999999977,72.2892
2013-08-28 0:4:45.230000000000018,72.2892
2013-08-28 0:4:46.060000000000002,74.0741
2013-08-28 0:4:46.870000000000005,77.9221
2013-08-28 0:4:47.639999999999986,78.9474
2013-08-28 0:4:48.399999999999977,81.0811
2013-08-28 0:4:49.139999999999986,81.0811
2013-08-28 0:4:50.579999999999984,81.0811
2013-08-28 0:4:51.319999999999993,82.1918
2013-08-28 0:4:52.050000000000011,81.0811
2013-08-28 0:4:52.79000000000002,81.0811
2013-08-28 0:4:53.529999999999973,78.9474
2013-08-28 0:4:54.29000000000002,80
2013-08-28 0:4:55.04000000000002,75
2013-08-28 0:4:55.839999999999975,74.0741
2013-08-28 0:4:56.649999999999977,71.4286
2013-08-28 0:4:57.490000000000009,72.2892
2013-08-28 0:4:58.319999999999993,72.2892
2013-08-28 0:4:59.149999999999977,69.7674
2013-08-28 0:5:0.0099999999999909051,68.9655
2013-08-28 0:5:0.87999999999999545,70.5882
2013-08-28 0:5:1.7300000000000182,72.2892
2013-08-28 0:5:2.5600000000000023,73.1707
2013-08-28 0:5:3.3799999999999955,75
2013-08-28 0:5:4.1800000000000068,75.9494
2013-08-28 0:5:4.9700000000000273,75.9494
2013-08-28 0:5:5.7599999999999909,75
2013-08-28 0:5:6.5600000000000023,75.9494
2013-08-28 0:5:7.3500000000000227,75.9494
2013-08-28 0:5:8.1399999999999864,75.9494
2013-08-28 0:5:8.9300000000000068,75
2013-08-28 0:5:9.7300000000000182,75
2013-08-28 0:5:10.529999999999973,74.0741
2013-08-28 0:5:11.339999999999975,74.0741
2013-08-28 0:5:12.149999999999977,73.1707
2013-08-28 0:5:12.970000000000027,73.1707
2013-08-28 0:5:13.79000000000002,72.2892
2013-08-28 0:5:14.620000000000005,71.4286
2013-08-28 0:5:15.45999999999998,69.7674
2013-08-28 0:5:16.319999999999993,70.5882
2013-08-28 0:5:17.170000000000016,72.2892
2013-08-28 0:5:18.0,73.1707
2013-08-28 0:5:18.819999999999993,73.1707
2013-08-28 0:5:19.639999999999986,74.0741
2013-08-28 0:5:20.449999999999989,75
2013-08-28 0:5:21.25,74.0741
2013-08-28 0:5:22.060000000000002,74.0741
2013-08-28 0:5:22.870000000000005,74.0741
2013-08-28 0:5:23.680000000000007,73.1707
2013-08-28 0:5:24.5,73.1707
2013-08-28 0:5:25.319999999999993,73.1707
2013-08-28 0:5:26.139999999999986,72.2892
2013-08-28 0:5:26.970000000000027,70.5882
2013-08-28 0:5:27.819999999999993,69.7674
2013-08-28 0:5:28.680000000000007,68.9655
2013-08-28 0:5:29.550000000000011,68.1818
2013-08-28 0:5:30.430000000000007,65.2174
2013-08-28 0:5:31.350000000000023,63.8298
2013-08-28 0:5:32.29000000000002,65.2174
2013-08-28 0:5:33.20999999999998,67.4157
2013-08-28 0:5:34.100000000000023,67.4157
2013-08-28 0:5:37.579999999999984,72.2892
2013-08-28 0:5:38.410000000000025,72.2892
2013-08-28 0:5:39.240000000000009,71.4286
2013-08-28 0:5:40.079999999999984,71.4286
2013-08-28 0:5:40.920000000000016,72.2892
2013-08-28 0:5:41.75,73.1707
2013-08-28 0:5:42.569999999999993,72.2892
2013-08-28 0:5:43.399999999999977,71.4286
2013-08-28 0:5:44.240000000000009,71.4286
2013-08-28 0:5:45.079999999999984,71.4286
2013-08-28 0:5:45.920000000000016,71.4286
2013-08-28 0:5:46.759999999999991,70.5882
2013-08-28 0:5:47.610000000000014,71.4286
2013-08-28 0:5:48.449999999999989,70.5882
2013-08-28 0:5:49.300000000000011,70.5882
2013-08-28 0:5:50.149999999999977,72.2892
2013-08-28 0:5:50.980000000000018,73.1707
2013-08-28 0:5:51.800000000000011,74.0741
2013-08-28 0:5:52.610000000000014,74.0741
2013-08-28 0:5:53.420000000000016,75
2013-08-28 0:5:54.220000000000027,75
2013-08-28 0:5:55.019999999999982,75
2013-08-28 0:5:55.819999999999993,73.1707
2013-08-28 0:5:56.639999999999986,71.4286
2013-08-28 0:5:57.480000000000018,68.9655
2013-08-28 0:5:58.350000000000023,68.1818
2013-08-28 0:5:59.230000000000018,66.6667
2013-08-28 0:6:0.12999999999999545,65.2174
2013-08-28 0:6:1.0500000000000114,62.5
2013-08-28 0:6:2.0099999999999909,66.6667
2013-08-28 0:6:2.910000000000025,70.5882
2013-08-28 0:6:3.7599999999999909,70.5882
2013-08-28 0:6:4.6100000000000136,72.2892
2013-08-28 0:6:5.4399999999999977,74.0741
2013-08-28 0:6:6.25,77.9221
2013-08-28 0:6:7.0199999999999818,77.9221
2013-08-28 0:6:7.7900000000000205,82.1918
2013-08-28 0:6:8.5199999999999818,76.9231
2013-08-28 0:6:9.3000000000000114,82.1918
2013-08-28 0:6:10.029999999999973,81.0811
2013-08-28 0:6:10.769999999999982,83.3333
2013-08-28 0:6:13.759999999999991,80
2013-08-28 0:6:14.509999999999991,81.0811
2013-08-28 0:6:15.25,78.9474
2013-08-28 0:6:18.370000000000005,75
2013-08-28 0:6:19.170000000000016,75.9494
2013-08-28 0:6:19.95999999999998,75
2013-08-28 0:6:20.759999999999991,73.1707
2013-08-28 0:6:21.579999999999984,72.2892
2013-08-28 0:6:22.410000000000025,71.4286
2013-08-28 0:6:23.25,72.2892
2013-08-28 0:6:24.079999999999984,71.4286
2013-08-28 0:6:24.920000000000016,68.9655
2013-08-28 0:6:25.79000000000002,68.9655
2013-08-28 0:6:26.660000000000025,67.4157
2013-08-28 0:6:27.550000000000011,67.4157
2013-08-28 0:6:28.439999999999998,68.1818
2013-08-28 0:6:29.319999999999993,68.1818
2013-08-28 0:6:30.199999999999989,66.6667
2013-08-28 0:6:31.100000000000023,67.4157
2013-08-28 0:6:31.990000000000009,68.1818
2013-08-28 0:6:32.870000000000005,67.4157
2013-08-28 0:6:33.759999999999991,68.9655
2013-08-28 0:6:34.629999999999995,67.4157
2013-08-28 0:6:35.519999999999982,67.4157
2013-08-28 0:6:36.410000000000025,67.4157
2013-08-28 0:6:37.300000000000011,69.7674
2013-08-28 0:6:38.160000000000025,69.7674
2013-08-28 0:6:39.019999999999982,68.9655
2013-08-28 0:6:39.889999999999986,68.9655
2013-08-28 0:6:40.759999999999991,68.9655
2013-08-28 0:6:41.629999999999995,68.9655
2013-08-28 0:6:42.5,67.4157
2013-08-28 0:6:43.389999999999986,65.9341
2013-08-28 0:6:44.300000000000011,66.6667
2013-08-28 0:6:45.199999999999989,66.6667
2013-08-28 0:6:46.100000000000023,67.4157
2013-08-28 0:6:46.990000000000009,68.1818
2013-08-28 0:6:47.870000000000005,68.1818
2013-08-28 0:6:48.75,67.4157
2013-08-28 0:6:49.639999999999986,68.1818
2013-08-28 0:6:50.519999999999982,69.7674
2013-08-28 0:6:51.379999999999995,71.4286
2013-08-28 0:6:52.220000000000027,72.2892
2013-08-28 0:6:53.050000000000011,73.1707
2013-08-28 0:6:53.870000000000005,74.0741
2013-08-28 0:6:56.29000000000002,76.9231
2013-08-28 0:6:57.069999999999993,77.9221
2013-08-28 0:6:57.839999999999975,76.9231
2013-08-28 0:6:58.620000000000005,75
2013-08-28 0:6:59.420000000000016,73.1707
2013-08-28 0:7:0.24000000000000909,72.2892
2013-08-28 0:7:1.0699999999999932,71.4286
2013-08-28 0:7:1.910000000000025,70.5882
2013-08-28 0:7:2.7599999999999909,69.7674
2013-08-28 0:7:3.6200000000000045,69.7674
2013-08-28 0:7:4.4800000000000182,68.9655
2013-08-28 0:7:5.3500000000000227,68.1818
2013-08-28 0:7:6.2300000000000182,68.1818
2013-08-28 0:7:7.1100000000000136,68.1818
2013-08-28 0:7:7.9900000000000091,67.4157
2013-08-28 0:7:8.8799999999999955,66.6667
2013-08-28 0:7:9.7799999999999727,65.2174
2013-08-28 0:7:10.699999999999989,64.5161
2013-08-28 0:7:11.629999999999995,64.5161
2013-08-28 0:7:12.560000000000002,63.8298
2013-08-28 0:7:13.5,63.1579
2013-08-28 0:7:14.449999999999989,62.5
2013-08-28 0:7:15.410000000000025,61.2245
2013-08-28 0:7:16.389999999999986,58.2524
2013-08-28 0:7:19.689999999999998,53.5714
2013-08-28 0:7:20.810000000000002,59.4059
2013-08-28 0:7:21.819999999999993,63.1579
2013-08-28 0:7:22.769999999999982,63.1579
2013-08-28 0:7:23.720000000000027,62.5
2013-08-28 0:7:24.680000000000007,64.5161
2013-08-28 0:7:25.610000000000014,67.4157
2013-08-28 0:7:26.5,68.1818
2013-08-28 0:7:27.379999999999995,70.5882
2013-08-28 0:7:28.230000000000018,72.2892
2013-08-28 0:7:29.060000000000002,74.0741
2013-08-28 0:7:29.870000000000005,75.9494
2013-08-28 0:7:30.660000000000025,75.9494
2013-08-28 0:7:31.449999999999989,75
2013-08-28 0:7:32.25,75.9494
2013-08-28 0:7:33.04000000000002,75
2013-08-28 0:7:33.839999999999975,75.9494
2013-08-28 0:7:34.629999999999995,75.9494
2013-08-28 0:7:35.420000000000016,75
2013-08-28 0:7:36.220000000000027,74.0741
2013-08-28 0:7:39.519999999999982,71.4286
2013-08-28 0:7:40.360000000000014,70.5882
2013-08-28 0:7:41.20999999999998,68.9655
2013-08-28 0:7:42.079999999999984,68.9655
2013-08-28 0:7:42.949999999999989,68.1818
2013-08-28 0:7:43.829999999999984,68.9655
2013-08-28 0:7:44.699999999999989,67.4157
2013-08-28 0:7:45.589999999999975,68.1818
2013-08-28 0:7:46.470000000000027,65.9341
2013-08-28 0:7:47.379999999999995,65.2174
2013-08-28 0:7:48.300000000000011,65.2174
2013-08-28 0:7:49.220000000000027,66.6667
2013-08-28 0:7:50.120000000000005,67.4157
2013-08-28 0:7:51.009999999999991,66.6667
2013-08-28 0:7:51.910000000000025,66.6667
2013-08-28 0:7:52.810000000000002,67.4157
2013-08-28 0:7:53.699999999999989,68.1818
2013-08-28 0:7:54.579999999999984,68.1818
2013-08-28 0:7:55.45999999999998,68.9655
2013-08-28 0:7:56.329999999999984,67.4157
2013-08-28 0:7:57.220000000000027,68.9655
2013-08-28 0:7:58.089999999999975,68.1818
2013-08-28 0:7:58.970000000000027,68.9655
2013-08-28 0:7:59.839999999999975,68.1818
2013-08-28 0:8:0.72000000000002728,67.4157
2013-08-28 0:8:1.6100000000000136,68.1818
2013-08-28 0:8:2.4900000000000091,67.4157
2013-08-28 0:8:3.3799999999999955,68.1818
2013-08-28 0:8:4.2599999999999909,66.6667
2013-08-28 0:8:5.160000000000025,65.9341
2013-08-28 0:8:6.0699999999999932,65.2174
2013-08-28 0:8:6.9900000000000091,63.8298
2013-08-28 0:8:7.9300000000000068,63.8298
2013-08-28 0:8:8.8700000000000045,62.5
2013-08-28 0:8:9.8299999999999841,63.1579
2013-08-28 0:8:10.779999999999973,63.8298
2013-08-28 0:8:11.720000000000027,61.8557
2013-08-28 0:8:12.689999999999998,60
2013-08-28 0:8:13.689999999999998,56.0748
2013-08-28 0:8:17.089999999999975,53.5714
2013-08-28 0:8:18.20999999999998,55.5556
2013-08-28 0:8:19.29000000000002,57.1429
2013-08-28 0:8:20.339999999999975,57.6923
2013-08-28 0:8:21.379999999999995,59.4059
2013-08-28 0:8:22.389999999999986,61.2245
2013-08-28 0:8:23.370000000000005,60
2013-08-28 0:8:24.370000000000005,58.2524
2013-08-28 0:8:25.399999999999977,56.6038
2013-08-28 0:8:26.45999999999998,61.2245
2013-08-28 0:8:27.439999999999998,63.1579
2013-08-28 0:8:28.389999999999986,63.1579
2013-08-28 0:8:29.339999999999975,63.8298
2013-08-28 0:8:30.279999999999973,64.5161
2013-08-28 0:8:31.20999999999998,64.5161
2013-08-28 0:8:32.139999999999986,63.1579
2013-08-28 0:8:33.090000000000032,65.2174
2013-08-28 0:8:34.009999999999991,65.2174
2013-08-28 0:8:34.92999999999995,64.5161
2013-08-28 0:8:35.860000000000014,64.5161
2013-08-28 0:8:36.789999999999964,65.9341
2013-08-28 0:8:37.700000000000045,68.1818
2013-08-28 0:8:38.580000000000041,68.1818
2013-08-28 0:8:39.460000000000036,67.4157
2013-08-28 0:8:40.350000000000023,67.4157
2013-08-28 0:8:41.240000000000009,68.1818
2013-08-28 0:8:42.120000000000005,67.4157
2013-08-28 0:8:43.009999999999991,65.9341
2013-08-28 0:8:43.919999999999959,64.5161
2013-08-28 0:8:44.850000000000023,65.9341
2013-08-28 0:8:45.759999999999991,64.5161
2013-08-28 0:8:46.690000000000055,63.8298
2013-08-28 0:8:47.629999999999995,63.8298
2013-08-28 0:8:48.57000000000005,65.2174
2013-08-28 0:8:49.490000000000009,66.6667
2013-08-28 0:8:50.389999999999986,68.1818
2013-08-28 0:8:51.269999999999982,66.6667
2013-08-28 0:8:52.169999999999959,65.2174
2013-08-28 0:8:53.090000000000032,65.2174
2013-08-28 0:8:54.009999999999991,65.2174
2013-08-28 0:8:54.92999999999995,63.8298
2013-08-28 0:8:55.870000000000005,61.2245
2013-08-28 0:8:56.850000000000023,60.6061
2013-08-28 0:8:57.840000000000032,61.2245
2013-08-28 0:8:58.82000000000005,64.5161
2013-08-28 0:8:59.75,65.2174
2013-08-28 0:9:0.66999999999995907,63.1579
2013-08-28 0:9:1.6200000000000045,62.5
2013-08-28 0:9:2.5800000000000409,61.2245
2013-08-28 0:9:3.5599999999999454,61.8557
2013-08-28 0:9:4.5299999999999727,63.1579
2013-08-28 0:9:5.4800000000000182,60
2013-08-28 0:9:6.4800000000000182,58.2524
2013-08-28 0:9:7.5099999999999909,55.5556
2013-08-28 0:9:8.5900000000000318,56.0748
2013-08-28 0:9:9.6599999999999682,57.6923
2013-08-28 0:9:10.700000000000045,55.5556
2013-08-28 0:9:11.779999999999973,56.0748
2013-08-28 0:9:12.850000000000023,60
2013-08-28 0:9:13.850000000000023,63.8298
2013-08-28 0:9:14.789999999999964,64.5161
2013-08-28 0:9:15.720000000000027,65.2174
2013-08-28 0:9:16.639999999999986,68.1818
2013-08-28 0:9:17.519999999999982,70.5882
2013-08-28 0:9:18.370000000000005,71.4286
2013-08-28 0:9:19.210000000000036,70.5882
2013-08-28 0:9:20.059999999999945,70.5882
2013-08-28 0:9:20.909999999999968,72.2892
2013-08-28 0:9:21.740000000000009,71.4286
2013-08-28 0:9:22.580000000000041,71.4286
2013-08-28 0:9:23.419999999999959,70.5882
2013-08-28 0:9:24.269999999999982,69.7674
2013-08-28 0:9:25.129999999999995,70.5882
2013-08-28 0:9:25.980000000000018,69.7674
2013-08-28 0:9:26.840000000000032,68.9655
2013-08-28 0:9:27.710000000000036,68.1818
2013-08-28 0:9:28.590000000000032,68.9655
2013-08-28 0:9:29.460000000000036,67.4157
2013-08-28 0:9:30.350000000000023,64.5161
2013-08-28 0:9:31.279999999999973,61.8557
2013-08-28 0:9:32.25,60
2013-08-28 0:9:33.25,60.6061
2013-08-28 0:9:34.240000000000009,61.2245
2013-08-28 0:9:35.220000000000027,60
2013-08-28 0:9:36.220000000000027,58.8235
2013-08-28 0:9:37.240000000000009,58.8235
2013-08-28 0:9:38.259999999999991,62.5
2013-08-28 0:9:39.220000000000027,65.2174
2013-08-28 0:9:40.139999999999986,65.2174
2013-08-28 0:9:41.059999999999945,63.8298
2013-08-28 0:9:42.0,64.5161
2013-08-28 0:9:42.92999999999995,65.9341
2013-08-28 0:9:43.840000000000032,67.4157
2013-08-28 0:9:44.730000000000018,66.6667
2013-08-28 0:9:45.629999999999995,67.4157
2013-08-28 0:9:46.519999999999982,66.6667
2013-08-28 0:9:47.419999999999959,67.4157
2013-08-28 0:9:48.309999999999945,65.2174
2013-08-28 0:9:49.230000000000018,66.6667
2013-08-28 0:9:50.129999999999995,68.9655
2013-08-28 0:9:51.0,70.5882
2013-08-28 0:9:51.850000000000023,71.4286
2013-08-28 0:9:52.690000000000055,71.4286
2013-08-28 0:9:53.529999999999973,71.4286
2013-08-28 0:9:54.370000000000005,70.5882
2013-08-28 0:9:55.220000000000027,69.7674
2013-08-28 0:9:56.080000000000041,68.9655
2013-08-28 0:9:56.950000000000045,67.4157
2013-08-28 0:9:57.840000000000032,65.2174
2013-08-28 0:9:58.759999999999991,65.2174
2013-08-28 0:9:59.67999999999995,64.5161
2013-08-28 0:10:0.61000000000001364,64.5161
2013-08-28 0:10:1.5399999999999636,64.5161
2013-08-28 0:10:2.4700000000000273,63.8298
2013-08-28 0:10:3.4099999999999682,63.8298
2013-08-28 0:10:4.3500000000000227,63.8298
2013-08-28 0:10:5.2899999999999636,65.2174
2013-08-28 0:10:6.2100000000000364,63.8298
2013-08-28 0:10:7.1499999999999773,62.5
2013-08-28 0:10:8.1100000000000136,60
2013-08-28 0:10:9.1100000000000136,57.1429
2013-08-28 0:10:10.159999999999968,54.0541
2013-08-28 0:10:11.269999999999982,56.6038
2013-08-28 0:10:12.330000000000041,60
2013-08-28 0:10:13.330000000000041,59.4059
2013-08-28 0:10:14.340000000000032,55.5556
2013-08-28 0:10:15.419999999999959,60.6061
2013-08-28 0:10:16.409999999999968,58.8235
2013-08-28 0:10:17.42999999999995,55.0459
2013-08-28 0:10:18.519999999999982,61.2245
2013-08-28 0:10:19.5,65.9341
2013-08-28 0:10:20.409999999999968,65.2174
2013-08-28 0:10:21.330000000000041,67.4157
2013-08-28 0:10:22.220000000000027,70.5882
2013-08-28 0:10:23.07000000000005,71.4286
2013-08-28 0:10:23.909999999999968,70.5882
2013-08-28 0:10:24.759999999999991,71.4286
2013-08-28 0:10:25.600000000000023,70.5882
2013-08-28 0:10:26.450000000000045,68.9655
2013-08-28 0:10:27.32000000000005,68.9655
2013-08-28 0:10:28.190000000000055,68.1818
2013-08-28 0:10:29.07000000000005,66.6667
2013-08-28 0:10:29.970000000000027,65.2174
2013-08-28 0:10:30.889999999999986,65.2174
2013-08-28 0:10:31.809999999999945,63.8298
2013-08-28 0:10:32.75,65.2174
2013-08-28 0:10:33.669999999999959,69.7674
2013-08-28 0:10:34.529999999999973,68.9655
2013-08-28 0:10:35.399999999999977,71.4286
2013-08-28 0:10:36.240000000000009,71.4286
2013-08-28 0:10:37.080000000000041,71.4286
2013-08-28 0:10:37.919999999999959,72.2892
2013-08-28 0:10:38.75,68.9655
2013-08-28 0:10:39.620000000000005,64.5161
2013-08-28 0:10:40.549999999999955,61.8557
2013-08-28 0:10:41.519999999999982,60.6061
2013-08-28 0:10:42.509999999999991,61.2245
2013-08-28 0:10:43.490000000000009,58.8235
2013-08-28 0:10:44.509999999999991,57.1429
2013-08-28 0:10:45.559999999999945,61.8557
2013-08-28 0:10:46.529999999999973,64.5161
2013-08-28 0:10:47.460000000000036,62.5
2013-08-28 0:10:48.419999999999959,61.8557
2013-08-28 0:10:49.389999999999986,63.1579
2013-08-28 0:10:50.340000000000032,57.6923
2013-08-28 0:10:51.379999999999995,56.6038
2013-08-28 0:10:52.440000000000055,61.8557
2013-08-28 0:10:53.409999999999968,60.6061
2013-08-28 0:10:54.399999999999977,61.2245
2013-08-28 0:10:55.379999999999995,64.5161
2013-08-28 0:10:56.309999999999945,66.6667
2013-08-28 0:10:57.210000000000036,65.9341
2013-08-28 0:10:58.120000000000005,67.4157
2013-08-28 0:10:59.009999999999991,68.1818
2013-08-28 0:10:59.889999999999986,68.1818
2013-08-28 0:11:0.76999999999998181,68.9655
2013-08-28 0:11:1.6399999999999864,68.9655
2013-08-28 0:11:2.5099999999999909,69.7674
2013-08-28 0:11:3.3700000000000045,74.0741
2013-08-28 0:11:4.17999999999995,72.2892
2013-08-28 0:11:5.0099999999999909,75.9494
2013-08-28 0:11:5.7999999999999545,75
2013-08-28 0:11:6.6000000000000227,77.9221
2013-08-28 0:11:7.3700000000000045,75
2013-08-28 0:11:8.1699999999999591,76.9231
2013-08-28 0:11:8.9500000000000455,78.9474
2013-08-28 0:11:9.7100000000000364,77.9221
2013-08-28 0:11:10.480000000000018,78.9474
2013-08-28 0:11:11.240000000000009,77.9221
2013-08-28 0:11:12.009999999999991,76.9231
2013-08-28 0:11:12.789999999999964,75.9494
2013-08-28 0:11:13.580000000000041,74.0741
2013-08-28 0:11:14.389999999999986,73.1707
2013-08-28 0:11:15.210000000000036,69.7674
2013-08-28 0:11:16.07000000000005,68.1818
2013-08-28 0:11:16.950000000000045,68.1818
2013-08-28 0:11:17.830000000000041,67.4157
2013-08-28 0:11:18.720000000000027,66.6667
2013-08-28 0:11:19.620000000000005,65.9341
2013-08-28 0:11:20.529999999999973,65.9341
2013-08-28 0:11:21.440000000000055,66.6667
2013-08-28 0:11:22.340000000000032,65.2174
2013-08-28 0:11:23.259999999999991,64.5161
2013-08-28 0:11:24.190000000000055,65.2174
2013-08-28 0:11:25.110000000000014,65.2174
2013-08-28 0:11:26.029999999999973,65.2174
2013-08-28 0:11:26.950000000000045,61.2245
2013-08-28 0:11:27.92999999999995,59.4059
2013-08-28 0:11:28.940000000000055,57.1429
2013-08-28 0:11:29.990000000000009,60
2013-08-28 0:11:30.990000000000009,63.8298
2013-08-28 0:11:31.92999999999995,61.8557
2013-08-28 0:11:32.899999999999977,61.8557
2013-08-28 0:11:33.870000000000005,64.5161
2013-08-28 0:11:34.799999999999955,63.8298
2013-08-28 0:11:35.740000000000009,60.6061
2013-08-28 0:11:36.730000000000018,65.2174
2013-08-28 0:11:37.649999999999977,67.4157
2013-08-28 0:11:38.539999999999964,66.6667
2013-08-28 0:11:39.440000000000055,67.4157
2013-08-28 0:11:40.330000000000041,69.7674
2013-08-28 0:11:41.190000000000055,72.2892
2013-08-28 0:11:42.019999999999982,70.5882
2013-08-28 0:11:42.870000000000005,70.5882
2013-08-28 0:11:43.720000000000027,70.5882
2013-08-28 0:11:44.57000000000005,72.2892
2013-08-28 0:11:45.399999999999977,73.1707
2013-08-28 0:11:46.220000000000027,71.4286
2013-08-28 0:11:47.059999999999945,72.2892
2013-08-28 0:11:47.889999999999986,69.7674
2013-08-28 0:11:48.75,69.7674
2013-08-28 0:11:49.610000000000014,68.1818
2013-08-28 0:11:50.490000000000009,66.6667
2013-08-28 0:11:51.389999999999986,66.6667
2013-08-28 0:11:52.289999999999964,67.4157
2013-08-28 0:11:53.17999999999995,65.2174
2013-08-28 0:11:54.100000000000023,63.8298
2013-08-28 0:11:55.039999999999964,66.6667
2013-08-28 0:11:55.940000000000055,67.4157
2013-08-28 0:11:56.830000000000041,65.2174
2013-08-28 0:11:57.75,60.6061
2013-08-28 0:11:58.740000000000009,57.1429
2013-08-28 0:11:59.789999999999964,60
2013-08-28 0:12:0.78999999999996362,63.8298
2013-08-28 0:12:1.7300000000000182,64.5161
2013-08-28 0:12:2.6599999999999682,66.6667
2013-08-28 0:12:3.5599999999999454,68.1818
2013-08-28 0:12:4.4400000000000546,70.5882
2013-08-28 0:12:5.2899999999999636,69.7674
2013-08-28 0:12:6.1499999999999773,68.9655
2013-08-28 0:12:7.0199999999999818,68.1818
2013-08-28 0:12:7.8999999999999773,69.7674
2013-08-28 0:12:8.7599999999999909,69.7674
2013-08-28 0:12:9.6200000000000045,68.9655
2013-08-28 0:12:10.490000000000009,68.9655
2013-08-28 0:12:11.360000000000014,67.4157
2013-08-28 0:12:12.25,66.6667
2013-08-28 0:12:13.149999999999977,66.6667
2013-08-28 0:12:14.049999999999955,66.6667
2013-08-28 0:12:14.950000000000045,66.6667
2013-08-28 0:12:15.850000000000023,65.2174
2013-08-28 0:12:16.769999999999982,64.5161
2013-08-28 0:12:17.700000000000045,63.8298
2013-08-28 0:12:18.639999999999986,61.8557
2013-08-28 0:12:19.610000000000014,58.2524
2013-08-28 0:12:20.639999999999986,55.0459
2013-08-28 0:12:22.870000000000005,55.5556
2013-08-28 0:12:23.950000000000045,62.5
2013-08-28 0:12:24.909999999999968,62.5
2013-08-28 0:12:25.870000000000005,60
2013-08-28 0:12:26.870000000000005,63.8298
2013-08-28 0:12:27.809999999999945,60.6061
2013-08-28 0:12:28.799999999999955,58.8235
2013-08-28 0:12:29.82000000000005,63.1579
2013-08-28 0:12:30.769999999999982,67.4157
2013-08-28 0:12:31.659999999999968,70.5882
2013-08-28 0:12:32.509999999999991,74.0741
2013-08-28 0:12:33.32000000000005,75
2013-08-28 0:12:35.639999999999986,76.9231
2013-08-28 0:12:36.419999999999959,77.9221
2013-08-28 0:12:37.190000000000055,77.9221
2013-08-28 0:12:37.960000000000036,78.9474
2013-08-28 0:12:38.720000000000027,76.9231
2013-08-28 0:12:39.5,74.0741
2013-08-28 0:12:40.309999999999945,72.2892
2013-08-28 0:12:41.139999999999986,68.9655
2013-08-28 0:12:42.009999999999991,67.4157
2013-08-28 0:12:42.899999999999977,64.5161
2013-08-28 0:12:43.830000000000041,63.1579
2013-08-28 0:12:44.779999999999973,62.5
2013-08-28 0:12:45.740000000000009,61.8557
2013-08-28 0:12:46.710000000000036,62.5
2013-08-28 0:12:47.669999999999959,62.5
2013-08-28 0:12:48.629999999999995,62.5
2013-08-28 0:12:49.590000000000032,61.2245
2013-08-28 0:12:50.57000000000005,60
2013-08-28 0:12:51.57000000000005,60.6061
2013-08-28 0:12:52.559999999999945,61.2245
2013-08-28 0:12:53.539999999999964,57.1429
2013-08-28 0:12:54.590000000000032,54.0541
2013-08-28 0:12:55.700000000000045,54.5455
2013-08-28 0:12:56.799999999999955,57.1429
2013-08-28 0:12:57.850000000000023,52.1739
2013-08-28 0:12:59.0,56.6038
2013-08-28 0:13:0.05999999999994543,61.8557
2013-08-28 0:13:1.0299999999999727,61.8557
2013-08-28 0:13:2.0,62.5
2013-08-28 0:13:2.9600000000000364,65.9341
2013-08-28 0:13:3.8700000000000045,68.9655
2013-08-28 0:13:4.7400000000000091,71.4286
2013-08-28 0:13:5.5800000000000409,72.2892
2013-08-28 0:13:6.4099999999999682,74.0741
2013-08-28 0:13:7.2200000000000273,75
2013-08-28 0:13:8.0199999999999818,73.1707
2013-08-28 0:13:8.8400000000000318,71.4286
2013-08-28 0:13:9.67999999999995,70.5882
2013-08-28 0:13:10.529999999999973,68.1818
2013-08-28 0:13:11.409999999999968,66.6667
2013-08-28 0:13:12.309999999999945,65.9341
2013-08-28 0:13:13.220000000000027,63.8298
2013-08-28 0:13:14.159999999999968,63.8298
2013-08-28 0:13:15.100000000000023,63.1579
2013-08-28 0:13:16.049999999999955,61.2245
2013-08-28 0:13:17.029999999999973,60.6061
2013-08-28 0:13:18.019999999999982,59.4059
2013-08-28 0:13:19.029999999999973,58.2524
2013-08-28 0:13:20.059999999999945,56.6038
2013-08-28 0:13:21.120000000000005,55.5556
2013-08-28 0:13:22.200000000000045,52.6316
2013-08-28 0:13:23.340000000000032,52.6316
2013-08-28 0:13:24.480000000000018,52.6316
2013-08-28 0:13:25.620000000000005,57.1429
2013-08-28 0:13:26.669999999999959,58.8235
2013-08-28 0:13:27.690000000000055,57.1429
2013-08-28 0:13:28.740000000000009,63.1579
2013-08-28 0:13:29.690000000000055,60
2013-08-28 0:13:30.690000000000055,56.0748
2013-08-28 0:13:31.759999999999991,61.8557
2013-08-28 0:13:32.730000000000018,58.8235
2013-08-28 0:13:33.75,60.6061
2013-08-28 0:13:34.740000000000009,65.2174
2013-08-28 0:13:38.309999999999945,68.9655
2013-08-28 0:13:39.17999999999995,70.5882
2013-08-28 0:13:40.029999999999973,70.5882
2013-08-28 0:13:40.879999999999995,68.9655
2013-08-28 0:13:41.75,67.4157
2013-08-28 0:13:42.639999999999986,67.4157
2013-08-28 0:13:43.529999999999973,66.6667
2013-08-28 0:13:44.42999999999995,67.4157
2013-08-28 0:13:45.32000000000005,68.1818
2013-08-28 0:13:46.200000000000045,68.9655
2013-08-28 0:13:47.07000000000005,68.1818
2013-08-28 0:13:47.950000000000045,67.4157
2013-08-28 0:13:48.840000000000032,65.9341
2013-08-28 0:13:49.75,65.2174
2013-08-28 0:13:50.669999999999959,65.9341
2013-08-28 0:13:51.580000000000041,69.7674
2013-08-28 0:13:52.440000000000055,68.9655
2013-08-28 0:13:53.309999999999945,75
2013-08-28 0:13:54.110000000000014,72.2892
2013-08-28 0:13:54.940000000000055,76.9231
2013-08-28 0:13:55.720000000000027,75.9494
2013-08-28 0:13:56.509999999999991,75.9494
2013-08-28 0:13:57.299999999999955,77.9221
2013-08-28 0:13:58.07000000000005,76.9231
2013-08-28 0:13:58.850000000000023,75.9494
2013-08-28 0:13:59.639999999999986,76.9231
2013-08-28 0:14:0.41999999999995907,77.9221
2013-08-28 0:14:1.1900000000000546,76.9231
2013-08-28 0:14:1.9700000000000273,76.9231
2013-08-28 0:14:2.75,75.9494
2013-08-28 0:14:3.5399999999999636,73.1707
2013-08-28 0:14:4.3600000000000136,71.4286
2013-08-28 0:14:5.2000000000000455,68.1818
2013-08-28 0:14:6.0800000000000409,65.9341
2013-08-28 0:14:6.9900000000000091,64.5161
2013-08-28 0:14:7.9199999999999591,62.5
2013-08-28 0:14:8.8799999999999955,62.5
2013-08-28 0:14:9.8400000000000318,62.5
2013-08-28 0:14:10.799999999999955,62.5
2013-08-28 0:14:11.759999999999991,63.1579
2013-08-28 0:14:12.710000000000036,62.5
2013-08-28 0:14:13.669999999999959,61.8557
2013-08-28 0:14:14.639999999999986,58.2524
2013-08-28 0:14:17.889999999999986,52.6316
2013-08-28 0:14:19.029999999999973,54.5455
2013-08-28 0:14:20.129999999999995,57.6923
2013-08-28 0:14:22.389999999999986,56.0748
2013-08-28 0:14:23.460000000000036,57.6923
2013-08-28 0:14:24.5,54.0541
2013-08-28 0:14:25.610000000000014,54.0541
2013-08-28 0:14:26.720000000000027,60.6061
2013-08-28 0:14:27.710000000000036,54.0541
2013-08-28 0:14:28.82000000000005,58.8235
2013-08-28 0:14:29.840000000000032,62.5
2013-08-28 0:14:30.799999999999955,61.8557
2013-08-28 0:14:31.769999999999982,68.1818
2013-08-28 0:14:33.490000000000009,69.7674
2013-08-28 0:14:34.350000000000023,70.5882
2013-08-28 0:14:35.200000000000045,72.2892
2013-08-28 0:14:36.029999999999973,73.1707
2013-08-28 0:14:36.850000000000023,73.1707
2013-08-28 0:14:40.190000000000055,71.4286
2013-08-28 0:14:41.029999999999973,69.7674
2013-08-28 0:14:41.889999999999986,68.1818
2013-08-28 0:14:42.769999999999982,67.4157
2013-08-28 0:14:43.659999999999968,65.2174
2013-08-28 0:14:44.580000000000041,64.5161
2013-08-28 0:14:45.509999999999991,63.8298
2013-08-28 0:14:46.450000000000045,63.1579
2013-08-28 0:14:47.399999999999977,63.8298
2013-08-28 0:14:48.340000000000032,63.8298
2013-08-28 0:14:49.279999999999973,64.5161
2013-08-28 0:14:50.210000000000036,64.5161
2013-08-28 0:14:51.139999999999986,63.8298
2013-08-28 0:14:52.080000000000041,61.8557
2013-08-28 0:14:53.049999999999955,61.8557
2013-08-28 0:14:54.019999999999982,60.6061
2013-08-28 0:14:55.009999999999991,60
2013-08-28 0:14:56.009999999999991,60.6061
2013-08-28 0:14:57.0,59.4059
2013-08-28 0:14:58.009999999999991,57.6923
2013-08-28 0:14:59.049999999999955,61.2245
2013-08-28 0:15:0.029999999999972715,59.4059
2013-08-28 0:15:2.2999999999999545,52.1739
2013-08-28 0:15:3.4500000000000455,61.8557
2013-08-28 0:15:4.4199999999999591,61.8557
2013-08-28 0:15:5.3899999999999864,55.5556
2013-08-28 0:15:6.4700000000000273,58.2524
2013-08-28 0:15:7.5,58.2524
2013-08-28 0:15:8.5299999999999727,51.7241
2013-08-28 0:15:9.6900000000000546,57.6923
2013-08-28 0:15:10.730000000000018,61.2245
2013-08-28 0:15:11.710000000000036,61.8557
2013-08-28 0:15:12.67999999999995,65.9341
2013-08-28 0:15:13.590000000000032,68.9655
2013-08-28 0:15:14.460000000000036,69.7674
2013-08-28 0:15:15.32000000000005,69.7674
2013-08-28 0:15:16.17999999999995,72.2892
2013-08-28 0:15:17.009999999999991,71.4286
2013-08-28 0:15:17.850000000000023,69.7674
2013-08-28 0:15:18.710000000000036,68.1818
2013-08-28 0:15:19.590000000000032,65.9341
2013-08-28 0:15:20.5,64.5161
2013-08-28 0:15:21.42999999999995,63.8298
2013-08-28 0:15:22.370000000000005,63.1579
2013-08-28 0:15:23.32000000000005,62.5
2013-08-28 0:15:24.279999999999973,62.5
2013-08-28 0:15:25.240000000000009,63.1579
2013-08-28 0:15:26.190000000000055,65.2174
2013-08-28 0:15:27.110000000000014,65.2174
2013-08-28 0:15:28.029999999999973,64.5161
2013-08-28 0:15:28.960000000000036,63.1579
2013-08-28 0:15:29.909999999999968,61.8557
2013-08-28 0:15:30.879999999999995,59.4059
2013-08-28 0:15:31.889999999999986,56.6038
2013-08-28 0:15:32.950000000000045,56.0748
2013-08-28 0:15:34.019999999999982,58.2524
2013-08-28 0:15:35.049999999999955,55.0459
2013-08-28 0:15:41.539999999999964,53.5714
2013-08-28 0:15:42.659999999999968,50
2013-08-28 0:15:43.860000000000014,56.0748
2013-08-28 0:15:44.92999999999995,61.8557
2013-08-28 0:15:45.899999999999977,60
2013-08-28 0:15:46.899999999999977,52.1739
2013-08-28 0:15:48.049999999999955,60.6061
2013-08-28 0:15:49.039999999999964,63.8298
2013-08-28 0:15:49.980000000000018,63.8298
2013-08-28 0:15:50.919999999999959,68.1818
2013-08-28 0:15:53.490000000000009,71.4286
2013-08-28 0:15:54.330000000000041,72.2892
2013-08-28 0:15:55.159999999999968,73.1707
2013-08-28 0:15:55.980000000000018,69.7674
2013-08-28 0:15:56.840000000000032,67.4157
2013-08-28 0:15:57.730000000000018,65.9341
2013-08-28 0:15:58.639999999999986,63.1579
2013-08-28 0:15:59.590000000000032,62.5
2013-08-28 0:16:0.54999999999995453,61.2245
2013-08-28 0:16:1.5299999999999727,60
2013-08-28 0:16:2.5299999999999727,61.2245
2013-08-28 0:16:3.5099999999999909,61.2245
2013-08-28 0:16:4.4900000000000091,62.5
2013-08-28 0:16:5.4500000000000455,63.1579
2013-08-28 0:16:6.3999999999999773,63.1579
2013-08-28 0:16:7.3500000000000227,63.1579
2013-08-28 0:16:8.2999999999999545,62.5
2013-08-28 0:16:9.2599999999999909,60.6061
2013-08-28 0:16:10.25,58.8235
2013-08-28 0:16:11.269999999999982,57.1429
2013-08-28 0:16:12.32000000000005,54.5455
2013-08-28 0:16:13.419999999999959,55.0459
2013-08-28 0:16:14.509999999999991,55.5556
2013-08-28 0:16:15.590000000000032,57.1429
2013-08-28 0:16:16.639999999999986,55.5556
2013-08-28 0:16:17.720000000000027,49.5868
2013-08-28 0:16:23.07000000000005,53.0973
2013-08-28 0:16:24.200000000000045,55.5556
2013-08-28 0:16:25.279999999999973,49.5868
2013-08-28 0:16:26.490000000000009,58.2524
2013-08-28 0:16:27.519999999999982,53.5714
2013-08-28 0:16:28.639999999999986,52.6316
2013-08-28 0:16:29.779999999999973,61.2245
2013-08-28 0:16:30.759999999999991,60.6061
2013-08-28 0:16:31.75,63.1579
2013-08-28 0:16:36.940000000000055,72.2892
2013-08-28 0:16:37.769999999999982,68.9655
2013-08-28 0:16:38.639999999999986,65.2174
2013-08-28 0:16:39.559999999999945,64.5161
2013-08-28 0:16:40.490000000000009,61.8557
2013-08-28 0:16:41.460000000000036,60.6061
2013-08-28 0:16:42.450000000000045,59.4059
2013-08-28 0:16:43.460000000000036,58.8235
2013-08-28 0:16:44.480000000000018,60
2013-08-28 0:16:45.480000000000018,60.6061
2013-08-28 0:16:46.470000000000027,60.6061
2013-08-28 0:16:47.460000000000036,61.2245
2013-08-28 0:16:48.440000000000055,61.2245
2013-08-28 0:16:49.419999999999959,61.2245
2013-08-28 0:16:50.399999999999977,60.6061
2013-08-28 0:16:51.389999999999986,60.6061
2013-08-28 0:16:52.379999999999995,60
2013-08-28 0:16:53.379999999999995,58.8235
2013-08-28 0:16:54.399999999999977,58.2524
2013-08-28 0:16:55.42999999999995,57.1429
2013-08-28 0:16:56.480000000000018,57.1429
2013-08-28 0:16:57.529999999999973,55.0459
2013-08-28 0:16:58.620000000000005,53.0973
2013-08-28 0:16:59.75,52.1739
2013-08-28 0:17:0.89999999999997726,54.0541
2013-08-28 0:17:2.0099999999999909,55.0459
2013-08-28 0:17:3.1000000000000227,57.1429
2013-08-28 0:17:4.1500000000000909,52.6316
2013-08-28 0:17:5.2899999999999636,50.4202
2013-08-28 0:17:6.4800000000000182,48.3871
2013-08-28 0:17:7.7200000000000273,48
2013-08-28 0:17:8.9700000000000273,55.5556
2013-08-28 0:17:10.049999999999955,61.8557
2013-08-28 0:17:11.019999999999982,55.5556
2013-08-28 0:17:12.099999999999909,56.6038
2013-08-28 0:17:13.160000000000082,61.8557
2013-08-28 0:17:14.130000000000109,59.4059
2013-08-28 0:17:15.1400000000001,58.2524
2013-08-28 0:17:16.170000000000073,64.5161
2013-08-28 0:17:17.099999999999909,64.5161
2013-08-28 0:17:18.029999999999973,66.6667
2013-08-28 0:17:19.769999999999982,70.5882
2013-08-28 0:17:20.619999999999891,71.4286
2013-08-28 0:17:21.460000000000036,70.5882
2013-08-28 0:17:22.309999999999945,70.5882
2013-08-28 0:17:23.160000000000082,71.4286
2013-08-28 0:17:24.0,68.9655
2013-08-28 0:17:24.869999999999891,66.6667
2013-08-28 0:17:25.769999999999982,65.2174
2013-08-28 0:17:26.690000000000055,63.1579
2013-08-28 0:17:27.6400000000001,61.8557
2013-08-28 0:17:28.6099999999999,61.2245
2013-08-28 0:17:29.589999999999918,61.2245
2013-08-28 0:17:30.569999999999936,61.2245
2013-08-28 0:17:31.549999999999955,62.5
2013-08-28 0:17:32.509999999999991,62.5
2013-08-28 0:17:33.470000000000027,61.8557
2013-08-28 0:17:34.440000000000055,62.5
2013-08-28 0:17:35.400000000000091,62.5
2013-08-28 0:17:36.3599999999999,61.2245
2013-08-28 0:17:37.339999999999918,61.2245
2013-08-28 0:17:38.319999999999936,60
2013-08-28 0:17:39.319999999999936,58.8235
2013-08-28 0:17:40.339999999999918,57.1429
2013-08-28 0:17:41.3900000000001,54.5455
2013-08-28 0:17:42.490000000000009,54.5455
2013-08-28 0:17:43.589999999999918,56.0748
2013-08-28 0:17:44.660000000000082,56.6038
2013-08-28 0:17:45.720000000000027,51.7241
2013-08-28 0:17:49.539999999999964,50
2013-08-28 0:17:50.740000000000009,50
2013-08-28 0:17:57.009999999999991,44.4444
2013-08-28 0:17:58.3599999999999,48
2013-08-28 0:17:59.6099999999999,54.5455
2013-08-28 0:18:2.6300000000001091,53.5714
2013-08-28 0:18:4.6900000000000546,62.5
2013-08-28 0:18:12.009999999999991,76.9231
2013-08-28 0:18:12.789999999999964,75
2013-08-28 0:18:13.589999999999918,75
2013-08-28 0:18:14.3900000000001,71.4286
2013-08-28 0:18:15.230000000000018,68.1818
2013-08-28 0:18:16.1099999999999,65.2174
2013-08-28 0:18:17.029999999999973,63.8298
2013-08-28 0:18:17.970000000000027,62.5
2013-08-28 0:18:18.930000000000064,61.8557
2013-08-28 0:18:19.900000000000091,61.2245
2013-08-28 0:18:20.880000000000109,60.6061
2013-08-28 0:18:21.869999999999891,61.8557
2013-08-28 0:18:22.839999999999918,62.5
2013-08-28 0:18:23.799999999999955,62.5
2013-08-28 0:18:24.759999999999991,62.5
2013-08-28 0:18:25.720000000000027,63.8298
2013-08-28 0:18:26.660000000000082,63.8298
2013-08-28 0:18:27.599999999999909,63.8298
2013-08-28 0:18:28.539999999999964,63.8298
2013-08-28 0:18:29.480000000000018,63.1579
2013-08-28 0:18:30.430000000000064,61.8557
2013-08-28 0:18:31.400000000000091,60.6061
2013-08-28 0:18:32.3900000000001,58.8235
2013-08-28 0:18:33.410000000000082,58.2524
2013-08-28 0:18:34.440000000000055,57.6923
2013-08-28 0:18:35.480000000000018,60
2013-08-28 0:18:36.480000000000018,62.5
2013-08-28 0:18:37.440000000000055,60.6061
2013-08-28 0:18:38.430000000000064,53.0973
2013-08-28 0:18:42.180000000000064,47.2441
2013-08-28 0:18:43.450000000000045,53.0973
2013-08-28 0:18:44.579999999999927,54.5455
2013-08-28 0:18:47.029999999999973,50
2013-08-28 0:18:48.230000000000018,55.5556
2013-08-28 0:18:49.309999999999945,55.0459
2013-08-28 0:18:50.400000000000091,62.5
2013-08-28 0:18:51.3599999999999,60.6061
2013-08-28 0:18:52.349999999999909,64.5161
2013-08-28 0:18:53.279999999999973,67.4157
2013-08-28 0:18:54.170000000000073,66.6667
2013-08-28 0:18:55.069999999999936,68.1818
2013-08-28 0:18:55.950000000000045,69.7674
2013-08-28 0:18:56.809999999999945,70.5882
2013-08-28 0:18:57.660000000000082,68.9655
2013-08-28 0:18:58.529999999999973,67.4157
2013-08-28 0:18:59.420000000000073,65.2174
2013-08-28 0:19:0.33999999999991815,63.8298
2013-08-28 0:19:1.2799999999999727,60.6061
2013-08-28 0:19:2.2699999999999818,60
2013-08-28 0:19:3.2699999999999818,60
2013-08-28 0:19:4.2699999999999818,60.6061
2013-08-28 0:19:5.2599999999999909,59.4059
2013-08-28 0:19:6.2699999999999818,60
2013-08-28 0:19:7.2699999999999818,60
2013-08-28 0:19:8.2699999999999818,60
2013-08-28 0:19:9.2699999999999818,58.8235
2013-08-28 0:19:10.289999999999964,58.8235
2013-08-28 0:19:11.309999999999945,56.6038
2013-08-28 0:19:12.369999999999891,55.5556
2013-08-28 0:19:13.450000000000045,54.5455
2013-08-28 0:19:14.549999999999955,55.5556
2013-08-28 0:19:15.630000000000109,59.4059
2013-08-28 0:19:16.6400000000001,58.8235
2013-08-28 0:19:17.660000000000082,56.6038
2013-08-28 0:19:18.720000000000027,50.8475
2013-08-28 0:19:19.900000000000091,48.3871
2013-08-28 0:19:21.1400000000001,46.1538
2013-08-28 0:19:22.440000000000055,48.7805
2013-08-28 0:19:23.670000000000073,51.7241
2013-08-28 0:19:24.829999999999927,55.0459
2013-08-28 0:19:25.920000000000073,45.1128
2013-08-28 0:19:27.25,55.0459
2013-08-28 0:19:28.339999999999918,60
2013-08-28 0:19:29.339999999999918,53.0973
2013-08-28 0:19:30.470000000000027,57.6923
2013-08-28 0:19:31.509999999999991,56.6038
2013-08-28 0:19:32.569999999999936,61.2245
2013-08-28 0:19:33.549999999999955,65.9341
2013-08-28 0:19:34.460000000000036,65.9341
2013-08-28 0:19:35.369999999999891,67.4157
2013-08-28 0:19:38.769999999999982,71.4286
2013-08-28 0:19:39.6099999999999,70.5882
2013-08-28 0:19:40.460000000000036,70.5882
2013-08-28 0:19:41.309999999999945,71.4286
2013-08-28 0:19:42.150000000000091,68.9655
2013-08-28 0:19:43.019999999999982,69.7674
2013-08-28 0:19:43.880000000000109,68.1818
2013-08-28 0:19:44.759999999999991,67.4157
2013-08-28 0:19:45.650000000000091,65.9341
2013-08-28 0:19:46.559999999999945,63.8298
2013-08-28 0:19:47.5,62.5
2013-08-28 0:19:48.460000000000036,61.8557
2013-08-28 0:19:49.430000000000064,60.6061
2013-08-28 0:19:50.420000000000073,59.4059
2013-08-28 0:19:51.430000000000064,58.2524
2013-08-28 0:19:52.460000000000036,56.6038
2013-08-28 0:19:53.519999999999982,54.5455
2013-08-28 0:19:54.619999999999891,54.5455
2013-08-28 0:19:55.720000000000027,53.0973
2013-08-28 0:19:56.849999999999909,52.6316
2013-08-28 0:19:57.990000000000009,51.7241
2013-08-28 0:19:59.150000000000091,52.1739
2013-08-28 0:20:0.29999999999995453,54.0541
2013-08-28 0:20:1.4100000000000819,53.5714
2013-08-28 0:20:6.6099999999999,48.3871
2013-08-28 0:20:7.8499999999999091,56.0748
2013-08-28 0:20:8.9200000000000728,56.6038
2013-08-28 0:20:9.9800000000000182,50
2013-08-28 0:20:12.160000000000082,61.8557
2013-08-28 0:20:13.130000000000109,55.0459
2013-08-28 0:20:14.220000000000027,55.0459
2013-08-28 0:20:15.309999999999945,60.6061
2013-08-28 0:20:16.299999999999955,65.9341
2013-08-28 0:20:17.210000000000036,67.4157
2013-08-28 0:20:18.099999999999909,68.1818
2013-08-28 0:20:20.670000000000073,71.4286
2013-08-28 0:20:21.509999999999991,69.7674
2013-08-28 0:20:22.369999999999891,68.1818
2013-08-28 0:20:23.25,66.6667
2013-08-28 0:20:24.150000000000091,65.2174
2013-08-28 0:20:25.069999999999936,62.5
2013-08-28 0:20:26.029999999999973,61.8557
2013-08-28 0:20:27.0,61.2245
2013-08-28 0:20:27.980000000000018,61.2245
2013-08-28 0:20:28.960000000000036,60.6061
2013-08-28 0:20:29.950000000000045,61.8557
2013-08-28 0:20:30.920000000000073,61.8557
2013-08-28 0:20:31.8900000000001,63.1579
2013-08-28 0:20:32.839999999999918,63.1579
2013-08-28 0:20:33.789999999999964,63.8298
2013-08-28 0:20:34.730000000000018,62.5
2013-08-28 0:20:35.690000000000055,61.2245
2013-08-28 0:20:36.670000000000073,61.2245
2013-08-28 0:20:37.650000000000091,58.8235
2013-08-28 0:20:38.670000000000073,57.6923
2013-08-28 0:20:39.710000000000036,55.5556
2013-08-28 0:20:40.789999999999964,54.0541
2013-08-28 0:20:41.900000000000091,55.5556
2013-08-28 0:20:42.980000000000018,56.0748
2013-08-28 0:20:44.049999999999955,49.1803
2013-08-28 0:20:49.349999999999909,52.1739
2013-08-28 0:20:50.5,56.0748
2013-08-28 0:20:51.569999999999936,47.2441
2013-08-28 0:20:52.839999999999918,47.2441
2013-08-28 0:20:55.119999999999891,61.8557
2013-08-28 0:20:56.089999999999918,54.0541
2013-08-28 0:20:57.200000000000045,63.1579
2013-08-28 0:20:58.150000000000091,63.8298
2013-08-28 0:21:2.5099999999999909,70.5882
2013-08-28 0:21:3.3599999999999,72.2892
2013-08-28 0:21:4.1900000000000546,74.0741
2013-08-28 0:21:5.0,70.5882
2013-08-28 0:21:5.8499999999999091,68.9655
2013-08-28 0:21:6.7200000000000273,67.4157
2013-08-28 0:21:7.6099999999999,65.2174
2013-08-28 0:21:8.5299999999999727,64.5161
2013-08-28 0:21:9.4600000000000364,62.5
2013-08-28 0:21:10.420000000000073,61.8557
2013-08-28 0:21:11.3900000000001,61.8557
2013-08-28 0:21:12.3599999999999,61.8557
2013-08-28 0:21:13.329999999999927,61.8557
2013-08-28 0:21:14.299999999999955,63.1579
2013-08-28 0:21:15.25,61.8557
2013-08-28 0:21:16.220000000000027,61.2245
2013-08-28 0:21:17.200000000000045,58.2524
2013-08-28 0:21:18.230000000000018,56.0748
2013-08-28 0:21:19.299999999999955,54.5455
2013-08-28 0:21:20.400000000000091,53.0973
2013-08-28 0:21:21.529999999999973,52.6316
2013-08-28 0:21:22.670000000000073,55.5556
2013-08-28 0:21:23.75,57.1429
2013-08-28 0:21:24.799999999999955,55.5556
2013-08-28 0:21:25.880000000000109,48
2013-08-28 0:21:28.470000000000027,45.8015
2013-08-28 0:21:29.779999999999973,49.1803
2013-08-28 0:21:31.0,43.7956
2013-08-28 0:21:35.819999999999936,43.1655
2013-08-28 0:21:40.819999999999936,46.875
2013-08-28 0:21:42.099999999999909,52.6316
2013-08-28 0:21:46.039999999999964,62.5
2013-08-28 0:21:54.519999999999982,81.0811
2013-08-28 0:21:55.259999999999991,80
2013-08-28 0:21:56.009999999999991,76.9231
2013-08-28 0:21:56.789999999999964,74.0741
2013-08-28 0:21:57.599999999999909,73.1707
2013-08-28 0:21:58.420000000000073,71.4286
2013-08-28 0:21:59.259999999999991,68.1818
2013-08-28 0:22:0.14000000000010004,67.4157
2013-08-28 0:22:1.0299999999999727,65.9341
2013-08-28 0:22:1.9400000000000546,65.2174
2013-08-28 0:22:2.8599999999999,64.5161
2013-08-28 0:22:3.7899999999999636,65.2174
2013-08-28 0:22:4.7100000000000364,64.5161
2013-08-28 0:22:5.6400000000001,64.5161
2013-08-28 0:22:6.5699999999999363,65.9341
2013-08-28 0:22:7.4800000000000182,65.2174
2013-08-28 0:22:8.4000000000000909,65.2174
2013-08-28 0:22:9.3199999999999363,65.9341
2013-08-28 0:22:10.230000000000018,64.5161
2013-08-28 0:22:11.160000000000082,64.5161
2013-08-28 0:22:12.089999999999918,62.5
2013-08-28 0:22:13.049999999999955,64.5161
2013-08-28 0:22:13.980000000000018,63.8298
2013-08-28 0:22:14.920000000000073,66.6667
2013-08-28 0:22:15.819999999999936,58.8235
2013-08-28 0:22:20.549999999999955,56.0748
2013-08-28 0:22:21.619999999999891,59.4059
2013-08-28 0:22:22.630000000000109,57.6923
2013-08-28 0:22:23.670000000000073,50.4202
2013-08-28 0:22:24.8599999999999,48.7805
2013-08-28 0:22:26.089999999999918,53.5714
2013-08-28 0:22:27.210000000000036,59.4059
2013-08-28 0:22:28.220000000000027,61.2245
2013-08-28 0:22:29.200000000000045,67.4157
2013-08-28 0:22:30.089999999999918,68.9655
2013-08-28 0:22:30.960000000000036,68.9655
2013-08-28 0:22:31.829999999999927,69.7674
2013-08-28 0:22:32.690000000000055,72.2892
2013-08-28 0:22:33.519999999999982,72.2892
2013-08-28 0:22:34.349999999999909,70.5882
2013-08-28 0:22:35.200000000000045,70.5882
2013-08-28 0:22:36.049999999999955,70.5882
2013-08-28 0:22:36.900000000000091,69.7674
2013-08-28 0:22:37.759999999999991,68.9655
2013-08-28 0:22:38.630000000000109,66.6667
2013-08-28 0:22:39.529999999999973,65.9341
2013-08-28 0:22:40.440000000000055,64.5161
2013-08-28 0:22:41.369999999999891,63.1579
2013-08-28 0:22:42.319999999999936,63.1579
2013-08-28 0:22:43.269999999999982,63.1579
2013-08-28 0:22:44.220000000000027,63.8298
2013-08-28 0:22:45.160000000000082,63.8298
2013-08-28 0:22:46.099999999999909,61.8557
2013-08-28 0:22:47.069999999999936,60
2013-08-28 0:22:48.069999999999936,58.2524
2013-08-28 0:22:49.099999999999909,55.5556
2013-08-28 0:22:50.180000000000064,53.5714
2013-08-28 0:22:51.299999999999955,53.0973
2013-08-28 0:22:52.430000000000064,53.0973
2013-08-28 0:22:53.559999999999945,52.1739
2013-08-28 0:22:54.710000000000036,53.0973
2013-08-28 0:22:55.839999999999918,57.1429
2013-08-28 0:22:56.8900000000001,59.4059
2013-08-28 0:23:1.8499999999999091,50
2013-08-28 0:23:3.0499999999999545,56.6038
2013-08-28 0:23:4.1099999999999,50.4202
2013-08-28 0:23:5.2999999999999545,52.1739
2013-08-28 0:23:6.4500000000000455,61.2245
2013-08-28 0:23:7.4300000000000637,60
2013-08-28 0:23:8.4300000000000637,55.0459
2013-08-28 0:23:9.5199999999999818,58.2524
2013-08-28 0:23:10.549999999999955,64.5161
2013-08-28 0:23:16.430000000000064,71.4286
2013-08-28 0:23:17.269999999999982,71.4286
2013-08-28 0:23:18.1099999999999,68.9655
2013-08-28 0:23:18.980000000000018,67.4157
2013-08-28 0:23:19.869999999999891,66.6667
2013-08-28 0:23:20.769999999999982,65.2174
2013-08-28 0:23:21.690000000000055,65.2174
2013-08-28 0:23:22.6099999999999,65.2174
2013-08-28 0:23:23.529999999999973,64.5161
2013-08-28 0:23:24.460000000000036,64.5161
2013-08-28 0:23:25.3900000000001,64.5161
2013-08-28 0:23:26.319999999999936,64.5161
2013-08-28 0:23:27.25,64.5161
2013-08-28 0:23:28.180000000000064,64.5161
2013-08-28 0:23:29.1099999999999,63.8298
2013-08-28 0:23:30.049999999999955,63.1579
2013-08-28 0:23:31.0,61.2245
2013-08-28 0:23:31.980000000000018,60
2013-08-28 0:23:32.980000000000018,57.1429
2013-08-28 0:23:34.029999999999973,55.0459
2013-08-28 0:23:35.119999999999891,52.6316
2013-08-28 0:23:36.259999999999991,52.1739
2013-08-28 0:23:37.410000000000082,55.5556
2013-08-28 0:23:38.490000000000009,58.2524
2013-08-28 0:23:39.519999999999982,59.4059
2013-08-28 0:23:44.670000000000073,49.1803
2013-08-28 0:23:47.380000000000109,48
2013-08-28 0:23:48.630000000000109,51.2821
2013-08-28 0:23:49.799999999999955,50.8475
2013-08-28 0:23:51.960000000000036,57.1429
2013-08-28 0:23:53.009999999999991,49.5868
2013-08-28 0:23:54.220000000000027,56.6038
2013-08-28 0:23:55.279999999999973,61.2245
2013-08-28 0:24:2.0499999999999545,75
2013-08-28 0:24:2.8499999999999091,73.1707
2013-08-28 0:24:3.6700000000000728,71.4286
2013-08-28 0:24:4.5099999999999909,70.5882
2013-08-28 0:24:5.3599999999999,68.9655
2013-08-28 0:24:6.2300000000000182,67.4157
2013-08-28 0:24:7.1199999999998909,65.9341
2013-08-28 0:24:8.0299999999999727,63.1579
2013-08-28 0:24:8.9800000000000182,61.8557
2013-08-28 0:24:9.9500000000000455,62.5
2013-08-28 0:24:10.910000000000082,62.5
2013-08-28 0:24:11.869999999999891,61.8557
2013-08-28 0:24:12.839999999999918,61.8557
2013-08-28 0:24:13.809999999999945,61.8557
2013-08-28 0:24:14.779999999999973,61.8557
2013-08-28 0:24:15.75,61.2245
2013-08-28 0:24:16.730000000000018,61.2245
2013-08-28 0:24:17.710000000000036,60.6061
2013-08-28 0:24:18.700000000000045,59.4059
2013-08-28 0:24:19.710000000000036,58.2524
2013-08-28 0:24:20.740000000000009,56.6038
2013-08-28 0:24:21.799999999999955,54.5455
2013-08-28 0:24:22.900000000000091,55.0459
2013-08-28 0:24:23.990000000000009,55.5556
2013-08-28 0:24:25.069999999999936,56.0748
2013-08-28 0:24:26.1400000000001,50
2013-08-28 0:24:30.009999999999991,52.1739
2013-08-28 0:24:31.160000000000082,47.2441
2013-08-28 0:24:34.099999999999909,45.8015
2013-08-28 0:24:35.410000000000082,44.4444
2013-08-28 0:24:36.759999999999991,50.8475
2013-08-28 0:24:37.940000000000055,56.0748
2013-08-28 0:24:39.009999999999991,53.0973
2013-08-28 0:24:40.1400000000001,53.5714
2013-08-28 0:24:41.259999999999991,61.8557
2013-08-28 0:24:42.230000000000018,61.2245
2013-08-28 0:24:48.940000000000055,74.0741
2013-08-28 0:24:49.75,72.2892
2013-08-28 0:24:50.579999999999927,70.5882
2013-08-28 0:24:51.430000000000064,67.4157
2013-08-28 0:24:52.319999999999936,64.5161
2013-08-28 0:24:53.25,63.8298
2013-08-28 0:24:54.190000000000055,63.1579
2013-08-28 0:24:55.1400000000001,61.8557
2013-08-28 0:24:56.1099999999999,60.6061
2013-08-28 0:24:57.099999999999909,61.8557
2013-08-28 0:24:58.069999999999936,61.2245
2013-08-28 0:24:59.049999999999955,62.5
2013-08-28 0:25:0.0099999999999909051,63.1579
2013-08-28 0:25:0.96000000000003638,63.8298
2013-08-28 0:25:1.9000000000000909,62.5
2013-08-28 0:25:2.8599999999999,60
2013-08-28 0:25:3.8599999999999,57.1429
2013-08-28 0:25:4.9100000000000819,54.5455
2013-08-28 0:25:6.0099999999999909,52.1739
2013-08-28 0:25:7.1600000000000819,51.2821
2013-08-28 0:25:8.3299999999999272,50
2013-08-28 0:25:9.5299999999999727,50.4202
2013-08-28 0:25:10.720000000000027,52.6316
2013-08-28 0:25:11.8599999999999,54.0541
2013-08-28 0:25:12.970000000000027,46.875
2013-08-28 0:25:17.170000000000073,45.1128
2013-08-28 0:25:18.5,51.2821
2013-08-28 0:25:19.670000000000073,54.0541
2013-08-28 0:25:25.220000000000027,54.5455
2013-08-28 0:25:26.319999999999936,55.5556
2013-08-28 0:25:31.799999999999955,67.4157
2013-08-28 0:25:32.690000000000055,66.6667
2013-08-28 0:25:33.589999999999918,66.6667
2013-08-28 0:25:34.490000000000009,65.9341
2013-08-28 0:25:35.400000000000091,65.9341
2013-08-28 0:25:36.309999999999945,63.8298
2013-08-28 0:25:37.25,63.1579
2013-08-28 0:25:38.200000000000045,63.8298
2013-08-28 0:25:39.1400000000001,62.5
2013-08-28 0:25:40.099999999999909,61.2245
2013-08-28 0:25:41.079999999999927,59.4059
2013-08-28 0:25:42.089999999999918,59.4059
2013-08-28 0:25:43.099999999999909,60
2013-08-28 0:25:44.099999999999909,60.6061
2013-08-28 0:25:45.089999999999918,61.8557
2013-08-28 0:25:46.059999999999945,62.5
2013-08-28 0:25:47.019999999999982,62.5
2013-08-28 0:25:47.980000000000018,61.8557
2013-08-28 0:25:48.950000000000045,60.6061
2013-08-28 0:25:49.940000000000055,61.2245
2013-08-28 0:25:50.920000000000073,58.8235
2013-08-28 0:25:51.940000000000055,58.2524
2013-08-28 0:25:52.970000000000027,57.1429
2013-08-28 0:25:54.019999999999982,56.0748
2013-08-28 0:25:55.089999999999918,58.2524
2013-08-28 0:25:56.119999999999891,57.6923
2013-08-28 0:25:57.160000000000082,50.8475
2013-08-28 0:26:1.0799999999999272,45.1128
2013-08-28 0:26:2.4100000000000819,50.8475
2013-08-28 0:26:3.5899999999999181,43.4783
2013-08-28 0:26:6.75,41.6667
2013-08-28 0:26:8.1900000000000546,49.1803
2013-08-28 0:26:9.4100000000000819,49.5868
2013-08-28 0:26:10.619999999999891,56.6038
2013-08-28 0:26:11.680000000000064,57.1429
2013-08-28 0:26:12.730000000000018,50
2013-08-28 0:26:13.930000000000064,56.6038
2013-08-28 0:26:14.990000000000009,59.4059
2013-08-28 0:26:16.0,63.1579
2013-08-28 0:26:21.990000000000009,72.2892
2013-08-28 0:26:22.819999999999936,70.5882
2013-08-28 0:26:23.670000000000073,68.9655
2013-08-28 0:26:24.539999999999964,66.6667
2013-08-28 0:26:25.440000000000055,64.5161
2013-08-28 0:26:26.369999999999891,63.1579
2013-08-28 0:26:27.319999999999936,61.2245
2013-08-28 0:26:28.299999999999955,61.2245
2013-08-28 0:26:29.279999999999973,60.6061
2013-08-28 0:26:30.269999999999982,60.6061
2013-08-28 0:26:31.259999999999991,60.6061
2013-08-28 0:26:32.25,60.6061
2013-08-28 0:26:33.240000000000009,60.6061
2013-08-28 0:26:34.230000000000018,61.2245
2013-08-28 0:26:35.210000000000036,60.6061
2013-08-28 0:26:36.200000000000045,60.6061
2013-08-28 0:26:37.190000000000055,58.2524
2013-08-28 0:26:38.220000000000027,57.6923
2013-08-28 0:26:39.259999999999991,56.0748
2013-08-28 0:26:40.329999999999927,52.6316
2013-08-28 0:26:41.470000000000027,51.7241
2013-08-28 0:26:42.630000000000109,53.0973
2013-08-28 0:26:43.759999999999991,53.0973
2013-08-28 0:26:44.8900000000001,47.2441
2013-08-28 0:26:47.519999999999982,44.7761
2013-08-28 0:26:48.8599999999999,51.7241
2013-08-28 0:26:50.019999999999982,46.875
2013-08-28 0:26:55.900000000000091,48
2013-08-28 0:26:57.150000000000091,50
2013-08-28 0:26:58.349999999999909,50.8475
2013-08-28 0:26:59.529999999999973,50
2013-08-28 0:27:0.73000000000001819,58.2524
2013-08-28 0:27:1.7599999999999909,57.1429
2013-08-28 0:27:2.8099999999999454,56.0748
2013-08-28 0:27:3.8800000000001091,58.8235
2013-08-28 0:27:4.9000000000000909,63.1579
2013-08-28 0:27:5.8499999999999091,64.5161
2013-08-28 0:27:7.6900000000000546,65.9341
2013-08-28 0:27:11.160000000000082,69.7674
2013-08-28 0:27:12.019999999999982,68.9655
2013-08-28 0:27:12.8900000000001,67.4157
2013-08-28 0:27:13.779999999999973,66.6667
2013-08-28 0:27:14.680000000000064,65.9341
2013-08-28 0:27:15.589999999999918,64.5161
2013-08-28 0:27:16.519999999999982,64.5161
2013-08-28 0:27:17.450000000000045,63.1579
2013-08-28 0:27:18.400000000000091,63.8298
2013-08-28 0:27:19.339999999999918,63.8298
2013-08-28 0:27:20.279999999999973,62.5
2013-08-28 0:27:21.240000000000009,60.6061
2013-08-28 0:27:22.230000000000018,59.4059
2013-08-28 0:27:23.240000000000009,58.2524
2013-08-28 0:27:24.269999999999982,57.1429
2013-08-28 0:27:25.319999999999936,56.6038
2013-08-28 0:27:26.380000000000109,56.6038
2013-08-28 0:27:27.440000000000055,55.5556
2013-08-28 0:27:28.519999999999982,54.5455
2013-08-28 0:27:29.619999999999891,55.5556
2013-08-28 0:27:30.700000000000045,56.0748
2013-08-28 0:27:31.769999999999982,51.7241
2013-08-28 0:27:36.980000000000018,50.4202
2013-08-28 0:27:38.170000000000073,47.2441
2013-08-28 0:27:42.75,43.4783
2013-08-28 0:27:44.130000000000109,51.2821
2013-08-28 0:27:45.299999999999955,48
2013-08-28 0:27:46.549999999999955,55.0459
2013-08-28 0:27:47.6400000000001,56.0748
2013-08-28 0:27:48.710000000000036,50
2013-08-28 0:27:49.910000000000082,50.4202
2013-08-28 0:27:51.099999999999909,54.5455
2013-08-28 0:27:59.8599999999999,72.2892
2013-08-28 0:28:0.69000000000005457,71.4286
2013-08-28 0:28:1.5299999999999727,69.7674
2013-08-28 0:28:2.3900000000001,68.1818
2013-08-28 0:28:3.2699999999999818,65.2174
2013-08-28 0:28:4.1900000000000546,64.5161
2013-08-28 0:28:5.1199999999998909,63.8298
2013-08-28 0:28:6.0599999999999454,62.5
2013-08-28 0:28:7.0199999999999818,61.8557
2013-08-28 0:28:7.9900000000000091,61.2245
2013-08-28 0:28:8.9700000000000273,60.6061
2013-08-28 0:28:9.9600000000000364,61.2245
2013-08-28 0:28:10.940000000000055,60.6061
2013-08-28 0:28:11.930000000000064,60
2013-08-28 0:28:12.930000000000064,58.8235
2013-08-28 0:28:13.950000000000045,57.1429
2013-08-28 0:28:15.0,54.5455
2013-08-28 0:28:16.099999999999909,53.0973
2013-08-28 0:28:17.230000000000018,54.0541
2013-08-28 0:28:18.339999999999918,56.0748
2013-08-28 0:28:19.410000000000082,57.6923
2013-08-28 0:28:20.450000000000045,54.0541
2013-08-28 0:28:24.180000000000064,50.4202
2013-08-28 0:28:25.369999999999891,47.2441
2013-08-28 0:28:29.730000000000018,44.4444
2013-08-28 0:28:31.079999999999927,49.1803
2013-08-28 0:28:32.299999999999955,46.875
2013-08-28 0:28:33.579999999999927,52.1739
2013-08-28 0:28:34.730000000000018,48.7805
2013-08-28 0:28:35.960000000000036,53.5714
2013-08-28 0:28:37.079999999999927,52.1739
2013-08-28 0:28:38.230000000000018,59.4059
2013-08-28 0:28:44.369999999999891,71.4286
2013-08-28 0:28:49.069999999999936,78.9474
2013-08-28 0:28:49.829999999999927,77.9221
2013-08-28 0:28:50.599999999999909,73.1707
2013-08-28 0:28:51.420000000000073,69.7674
2013-08-28 0:28:52.279999999999973,65.9341
2013-08-28 0:28:53.190000000000055,63.8298
2013-08-28 0:28:54.130000000000109,62.5
2013-08-28 0:28:55.089999999999918,60.6061
2013-08-28 0:28:56.079999999999927,60
2013-08-28 0:28:57.079999999999927,58.8235
2013-08-28 0:28:58.099999999999909,58.8235
2013-08-28 0:28:59.119999999999891,58.2524
2013-08-28 0:29:0.15000000000009095,58.2524
2013-08-28 0:29:1.1800000000000637,57.1429
2013-08-28 0:29:2.2300000000000182,57.1429
2013-08-28 0:29:3.2799999999999727,56.6038
2013-08-28 0:29:4.3399999999999181,56.6038
2013-08-28 0:29:5.4000000000000909,56.6038
2013-08-28 0:29:6.4600000000000364,55.0459
2013-08-28 0:29:7.5499999999999545,54.0541
2013-08-28 0:29:8.6600000000000819,51.7241
2013-08-28 0:29:9.8199999999999363,50.8475
2013-08-28 0:29:11.0,52.6316
2013-08-28 0:29:12.1400000000001,54.5455
2013-08-28 0:29:13.240000000000009,50.8475
2013-08-28 0:29:17.200000000000045,50
2013-08-28 0:29:18.400000000000091,46.5116
2013-08-28 0:29:22.740000000000009,44.1176
2013-08-28 0:29:24.099999999999909,52.1739
2013-08-28 0:29:25.25,45.8015
2013-08-28 0:29:26.559999999999945,55.0459
2013-08-28 0:29:27.650000000000091,60
2013-08-28 0:29:28.650000000000091,58.8235
2013-08-28 0:29:30.920000000000073,56.0748
2013-08-28 0:29:31.990000000000009,62.5
2013-08-28 0:29:38.579999999999927,75.9494
2013-08-28 0:29:39.369999999999891,76.9231
2013-08-28 0:29:40.150000000000091,74.0741
2013-08-28 0:29:40.960000000000036,71.4286
2013-08-28 0:29:41.799999999999955,70.5882
2013-08-28 0:29:42.650000000000091,68.1818
2013-08-28 0:29:43.529999999999973,65.2174
2013-08-28 0:29:44.450000000000045,64.5161
2013-08-28 0:29:45.380000000000109,63.1579
2013-08-28 0:29:46.329999999999927,61.8557
2013-08-28 0:29:47.299999999999955,61.8557
2013-08-28 0:29:48.269999999999982,61.8557
2013-08-28 0:29:49.240000000000009,61.8557
2013-08-28 0:29:50.210000000000036,60
2013-08-28 0:29:51.210000000000036,58.2524
2013-08-28 0:29:52.240000000000009,57.1429
2013-08-28 0:29:53.289999999999964,55.5556
2013-08-28 0:29:54.369999999999891,54.5455
2013-08-28 0:29:55.470000000000027,54.0541
2013-08-28 0:29:56.579999999999927,57.1429
2013-08-28 0:29:57.630000000000109,57.1429
2013-08-28 0:29:58.680000000000064,53.0973
2013-08-28 0:29:59.809999999999945,48.7805
2013-08-28 0:30:2.3499999999999091,47.2441
2013-08-28 0:30:3.6199999999998909,50.8475
2013-08-28 0:30:4.7999999999999545,48.3871
2013-08-28 0:30:9.1400000000001,47.2441
2013-08-28 0:30:10.410000000000082,52.1739
2013-08-28 0:30:11.559999999999945,44.1176
2013-08-28 0:30:14.009999999999991,49.5868
2013-08-28 0:30:15.220000000000027,56.0748
2013-08-28 0:30:16.289999999999964,56.0748
2013-08-28 0:30:26.619999999999891,71.4286
2013-08-28 0:30:27.460000000000036,68.9655
2013-08-28 0:30:28.329999999999927,67.4157
2013-08-28 0:30:29.220000000000027,64.5161
2013-08-28 0:30:30.150000000000091,63.8298
2013-08-28 0:30:31.089999999999918,63.8298
2013-08-28 0:30:32.029999999999973,64.5161
2013-08-28 0:30:32.960000000000036,64.5161
2013-08-28 0:30:33.8900000000001,65.2174
2013-08-28 0:30:34.809999999999945,63.8298
2013-08-28 0:30:35.75,63.1579
2013-08-28 0:30:36.700000000000045,61.8557
2013-08-28 0:30:37.670000000000073,60.6061
2013-08-28 0:30:38.660000000000082,58.2524
2013-08-28 0:30:39.690000000000055,56.6038
2013-08-28 0:30:40.75,55.5556
2013-08-28 0:30:41.829999999999927,54.5455
2013-08-28 0:30:42.930000000000064,54.5455
2013-08-28 0:30:44.029999999999973,55.0459
2013-08-28 0:30:45.119999999999891,57.1429
2013-08-28 0:30:46.170000000000073,59.4059
2013-08-28 0:30:47.180000000000064,56.6038
2013-08-28 0:30:48.240000000000009,53.5714
2013-08-28 0:30:49.3599999999999,50.4202
2013-08-28 0:30:50.549999999999955,48.3871
2013-08-28 0:30:51.789999999999964,54.0541
2013-08-28 0:30:52.900000000000091,51.7241
2013-08-28 0:30:56.8599999999999,47.619
2013-08-28 0:30:58.119999999999891,49.5868
2013-08-28 0:30:59.329999999999927,48.3871
2013-08-28 0:31:0.56999999999993634,47.619
2013-08-28 0:31:1.8299999999999272,56.6038
2013-08-28 0:31:2.8900000000001,52.6316
2013-08-28 0:31:4.0299999999999727,47.619
2013-08-28 0:31:5.2899999999999636,54.0541
2013-08-28 0:31:6.4000000000000909,57.6923
2013-08-28 0:31:7.4400000000000546,61.8557
2013-08-28 0:31:8.4100000000000819,63.1579
2013-08-28 0:31:15.759999999999991,75.9494
2013-08-28 0:31:16.549999999999955,75
2013-08-28 0:31:17.349999999999909,75
2013-08-28 0:31:18.150000000000091,72.2892
2013-08-28 0:31:18.980000000000018,71.4286
2013-08-28 0:31:19.819999999999936,68.9655
2013-08-28 0:31:20.690000000000055,65.9341
2013-08-28 0:31:21.599999999999909,65.2174
2013-08-28 0:31:22.519999999999982,63.8298
2013-08-28 0:31:23.460000000000036,63.8298
2013-08-28 0:31:24.400000000000091,63.8298
2013-08-28 0:31:25.339999999999918,64.5161
2013-08-28 0:31:26.269999999999982,64.5161
2013-08-28 0:31:27.200000000000045,66.6667
2013-08-28 0:31:28.099999999999909,65.2174
2013-08-28 0:31:29.019999999999982,65.2174
2013-08-28 0:31:29.940000000000055,64.5161
2013-08-28 0:31:30.869999999999891,63.1579
2013-08-28 0:31:31.819999999999936,61.2245
2013-08-28 0:31:32.799999999999955,57.6923
2013-08-28 0:31:33.839999999999918,56.0748
2013-08-28 0:31:34.910000000000082,53.5714
2013-08-28 0:31:36.029999999999973,56.0748
2013-08-28 0:31:37.099999999999909,57.1429
2013-08-28 0:31:38.150000000000091,50.8475
2013-08-28 0:31:41.980000000000018,48.3871
2013-08-28 0:31:43.220000000000027,48
2013-08-28 0:31:47.410000000000082,49.5868
2013-08-28 0:31:48.619999999999891,51.7241
2013-08-28 0:31:49.779999999999973,49.1803
2013-08-28 0:31:51.0,55.5556
2013-08-28 0:31:52.079999999999927,48
2013-08-28 0:31:53.329999999999927,57.6923
2013-08-28 0:31:54.369999999999891,54.5455
2013-08-28 0:31:55.470000000000027,63.1579
2013-08-28 0:32:2.25,73.1707
2013-08-28 0:32:3.0699999999999363,73.1707
2013-08-28 0:32:3.8900000000001,72.2892
2013-08-28 0:32:4.7200000000000273,71.4286
2013-08-28 0:32:5.5599999999999454,69.7674
2013-08-28 0:32:6.4200000000000728,67.4157
2013-08-28 0:32:7.3099999999999454,66.6667
2013-08-28 0:32:8.2100000000000364,65.9341
2013-08-28 0:32:9.1199999999998909,65.2174
2013-08-28 0:32:10.039999999999964,64.5161
2013-08-28 0:32:10.970000000000027,64.5161
2013-08-28 0:32:11.900000000000091,63.1579
2013-08-28 0:32:12.849999999999909,63.1579
2013-08-28 0:32:13.799999999999955,62.5
2013-08-28 0:32:14.759999999999991,61.2245
2013-08-28 0:32:15.740000000000009,60.6061
2013-08-28 0:32:16.730000000000018,60
2013-08-28 0:32:17.730000000000018,58.8235
2013-08-28 0:32:18.75,58.2524
2013-08-28 0:32:19.779999999999973,58.2524
2013-08-28 0:32:20.809999999999945,59.4059
2013-08-28 0:32:21.819999999999936,62.5
2013-08-28 0:32:22.779999999999973,58.8235
2013-08-28 0:32:23.799999999999955,54.5455
2013-08-28 0:32:24.900000000000091,51.7241
2013-08-28 0:32:26.059999999999945,50.8475
2013-08-28 0:32:27.240000000000009,53.5714
2013-08-28 0:32:28.3599999999999,51.7241
2013-08-28 0:32:32.190000000000055,50
2013-08-28 0:32:34.930000000000064,42.8571
2013-08-28 0:32:36.329999999999927,52.1739
2013-08-28 0:32:37.480000000000018,48.7805
2013-08-28 0:32:38.710000000000036,48
2013-08-28 0:32:42.75,63.8298
2013-08-28 0:32:48.430000000000064,76.9231
2013-08-28 0:32:49.210000000000036,75
2013-08-28 0:32:50.009999999999991,73.1707
2013-08-28 0:32:50.829999999999927,70.5882
2013-08-28 0:32:51.680000000000064,68.9655
2013-08-28 0:32:52.549999999999955,67.4157
2013-08-28 0:32:53.440000000000055,67.4157
2013-08-28 0:32:54.329999999999927,67.4157
2013-08-28 0:32:55.220000000000027,65.9341
2013-08-28 0:32:56.130000000000109,65.9341
2013-08-28 0:32:57.039999999999964,63.8298
2013-08-28 0:32:57.980000000000018,63.1579
2013-08-28 0:32:58.930000000000064,61.2245
2013-08-28 0:32:59.910000000000082,59.4059
2013-08-28 0:33:0.92000000000007276,59.4059
2013-08-28 0:33:1.9300000000000637,57.6923
2013-08-28 0:33:2.9700000000000273,57.6923
2013-08-28 0:33:4.0099999999999909,58.2524
2013-08-28 0:33:5.0399999999999636,57.6923
2013-08-28 0:33:6.0799999999999272,57.1429
2013-08-28 0:33:7.1300000000001091,56.6038
2013-08-28 0:33:8.1900000000000546,56.0748
2013-08-28 0:33:9.2599999999999909,55.0459
2013-08-28 0:33:10.349999999999909,53.0973
2013-08-28 0:33:11.480000000000018,52.1739
2013-08-28 0:33:12.630000000000109,49.5868
2013-08-28 0:33:13.839999999999918,48.3871
2013-08-28 0:33:15.079999999999927,55.0459
2013-08-28 0:33:16.170000000000073,56.0748
2013-08-28 0:33:17.240000000000009,51.2821
2013-08-28 0:33:18.410000000000082,46.1538
2013-08-28 0:33:21.150000000000091,48.3871
2013-08-28 0:33:22.3900000000001,46.5116
2013-08-28 0:33:25.150000000000091,49.5868
2013-08-28 0:33:26.3599999999999,46.5116
2013-08-28 0:33:27.650000000000091,48.7805
2013-08-28 0:33:28.880000000000109,55.0459
2013-08-28 0:33:29.970000000000027,56.0748
2013-08-28 0:33:31.039999999999964,53.5714
2013-08-28 0:33:33.1099999999999,61.2245
2013-08-28 0:33:39.920000000000073,73.1707
2013-08-28 0:33:40.740000000000009,71.4286
2013-08-28 0:33:41.579999999999927,68.9655
2013-08-28 0:33:42.450000000000045,66.6667
2013-08-28 0:33:43.349999999999909,64.5161
2013-08-28 0:33:44.279999999999973,63.1579
2013-08-28 0:33:45.230000000000018,63.8298
2013-08-28 0:33:46.170000000000073,63.1579
2013-08-28 0:33:47.119999999999891,63.8298
2013-08-28 0:33:48.059999999999945,62.5
2013-08-28 0:33:49.019999999999982,63.8298
2013-08-28 0:33:49.960000000000036,64.5161
2013-08-28 0:33:50.8900000000001,64.5161
2013-08-28 0:33:51.819999999999936,65.2174
2013-08-28 0:33:52.740000000000009,63.8298
2013-08-28 0:33:53.680000000000064,60.6061
2013-08-28 0:33:54.670000000000073,58.8235
2013-08-28 0:33:55.690000000000055,56.6038
2013-08-28 0:33:56.75,55.5556
2013-08-28 0:33:57.829999999999927,52.6316
2013-08-28 0:33:58.970000000000027,52.1739
2013-08-28 0:34:0.11999999999989086,52.1739
2013-08-28 0:34:1.2699999999999818,52.6316
2013-08-28 0:34:2.4100000000000819,53.0973
2013-08-28 0:34:3.5399999999999636,47.2441
2013-08-28 0:34:7.6400000000001,48.7805
2013-08-28 0:34:8.8699999999998909,43.4783
2013-08-28 0:34:15.039999999999964,48.3871
2013-08-28 0:34:16.2800000000002,49.1803
2013-08-28 0:34:17.5,50.8475
2013-08-28 0:34:18.679999999999836,44.4444
2013-08-28 0:34:21.110000000000127,53.0973
2013-08-28 0:34:28.309999999999945,71.4286
2013-08-28 0:34:29.150000000000091,71.4286
2013-08-28 0:34:29.989999999999782,69.7674
2013-08-28 0:34:30.849999999999909,70.5882
2013-08-28 0:34:31.699999999999818,66.6667
2013-08-28 0:34:32.599999999999909,65.2174
2013-08-28 0:34:33.519999999999982,63.1579
2013-08-28 0:34:34.4699999999998,62.5
2013-08-28 0:34:35.429999999999836,62.5
2013-08-28 0:34:36.389999999999873,62.5
2013-08-28 0:34:37.349999999999909,61.8557
2013-08-28 0:34:38.320000000000164,61.8557
2013-08-28 0:34:39.289999999999964,61.2245
2013-08-28 0:34:40.269999999999982,60
2013-08-28 0:34:41.269999999999982,58.8235
2013-08-28 0:34:42.289999999999964,58.2524
2013-08-28 0:34:43.320000000000164,57.1429
2013-08-28 0:34:44.369999999999891,56.6038
2013-08-28 0:34:45.429999999999836,56.6038
2013-08-28 0:34:46.489999999999782,56.6038
2013-08-28 0:34:47.550000000000182,55.0459
2013-08-28 0:34:48.639999999999873,54.0541
2013-08-28 0:34:49.75,51.7241
2013-08-28 0:34:50.909999999999854,52.6316
2013-08-28 0:34:52.050000000000182,54.5455
2013-08-28 0:34:53.150000000000091,51.2821
2013-08-28 0:34:58.5300000000002,48.3871
2013-08-28 0:34:59.769999999999982,45.1128
2013-08-28 0:35:5.6399999999998727,49.1803
2013-08-28 0:35:6.8600000000001273,40.8163
2013-08-28 0:35:9.5100000000002183,47.2441
2013-08-28 0:35:10.7800000000002,56.6038
2013-08-28 0:35:11.840000000000146,55.0459
2013-08-28 0:35:20.800000000000182,68.9655
2013-08-28 0:35:21.670000000000073,66.6667
2013-08-28 0:35:22.570000000000164,65.9341
2013-08-28 0:35:23.480000000000018,64.5161
2013-08-28 0:35:24.409999999999854,63.1579
2013-08-28 0:35:25.360000000000127,61.2245
2013-08-28 0:35:26.340000000000146,60
2013-08-28 0:35:27.340000000000146,60
2013-08-28 0:35:28.340000000000146,60.6061
2013-08-28 0:35:29.329999999999927,59.4059
2013-08-28 0:35:30.340000000000146,59.4059
2013-08-28 0:35:31.349999999999909,57.6923
2013-08-28 0:35:32.389999999999873,56.0748
2013-08-28 0:35:33.460000000000036,53.0973
2013-08-28 0:35:34.590000000000146,53.0973
2013-08-28 0:35:35.7199999999998,54.0541
2013-08-28 0:35:36.829999999999927,53.5714
2013-08-28 0:35:37.949999999999818,50.4202
2013-08-28 0:35:39.139999999999873,49.5868
2013-08-28 0:35:40.349999999999909,54.0541
2013-08-28 0:35:41.460000000000036,54.0541
2013-08-28 0:35:42.570000000000164,49.5868
2013-08-28 0:35:43.7800000000002,45.8015
2013-08-28 0:35:45.090000000000146,45.8015
2013-08-28 0:35:46.400000000000091,51.7241
2013-08-28 0:35:47.559999999999945,46.875
2013-08-28 0:35:52.170000000000073,43.4783
2013-08-28 0:35:53.550000000000182,52.1739
2013-08-28 0:35:54.699999999999818,49.5868
2013-08-28 0:35:55.909999999999854,54.5455
2013-08-28 0:35:57.010000000000218,56.6038
2013-08-28 0:35:58.070000000000164,56.6038
2013-08-28 0:36:7.4400000000000546,74.0741
2013-08-28 0:36:8.25,71.4286
2013-08-28 0:36:9.0900000000001455,69.7674
2013-08-28 0:36:9.9499999999998181,68.1818
2013-08-28 0:36:10.829999999999927,64.5161
2013-08-28 0:36:11.760000000000218,63.1579
2013-08-28 0:36:12.710000000000036,61.2245
2013-08-28 0:36:13.690000000000055,60.6061
2013-08-28 0:36:14.679999999999836,61.2245
2013-08-28 0:36:15.659999999999854,61.2245
2013-08-28 0:36:16.639999999999873,60
2013-08-28 0:36:17.639999999999873,60.6061
2013-08-28 0:36:18.630000000000109,60.6061
2013-08-28 0:36:19.619999999999891,60
2013-08-28 0:36:20.619999999999891,61.2245
2013-08-28 0:36:21.599999999999909,60
2013-08-28 0:36:22.599999999999909,60.6061
2013-08-28 0:36:23.590000000000146,58.8235
2013-08-28 0:36:24.610000000000127,57.6923
2013-08-28 0:36:25.650000000000091,57.6923
2013-08-28 0:36:26.690000000000055,57.6923
2013-08-28 0:36:27.730000000000018,59.4059
2013-08-28 0:36:28.739999999999782,61.8557
2013-08-28 0:36:29.710000000000036,56.6038
2013-08-28 0:36:30.769999999999982,50.4202
2013-08-28 0:36:33.2199999999998,50.4202
2013-08-28 0:36:34.409999999999854,51.2821
2013-08-28 0:36:35.579999999999927,46.5116
2013-08-28 0:36:40.010000000000218,43.1655
2013-08-28 0:36:41.400000000000091,46.5116
2013-08-28 0:36:45.909999999999854,45.8015
2013-08-28 0:36:47.2199999999998,53.5714
2013-08-28 0:36:48.340000000000146,58.8235
2013-08-28 0:36:49.360000000000127,56.6038
2013-08-28 0:36:50.420000000000073,58.2524
2013-08-28 0:36:58.800000000000182,75
2013-08-28 0:36:59.599999999999909,73.1707
2013-08-28 0:37:0.42000000000007276,71.4286
2013-08-28 0:37:1.2600000000002183,69.7674
2013-08-28 0:37:2.1199999999998909,67.4157
2013-08-28 0:37:3.0100000000002183,65.9341
2013-08-28 0:37:3.9200000000000728,65.2174
2013-08-28 0:37:4.8400000000001455,64.5161
2013-08-28 0:37:5.7699999999999818,65.2174
2013-08-28 0:37:6.6900000000000546,64.5161
2013-08-28 0:37:7.6199999999998909,65.2174
2013-08-28 0:37:8.5399999999999636,64.5161
2013-08-28 0:37:9.4699999999997999,64.5161
2013-08-28 0:37:10.400000000000091,62.5
2013-08-28 0:37:11.360000000000127,61.2245
2013-08-28 0:37:12.340000000000146,60
2013-08-28 0:37:13.340000000000146,58.2524
2013-08-28 0:37:14.369999999999891,56.6038
2013-08-28 0:37:15.429999999999836,55.0459
2013-08-28 0:37:16.519999999999982,53.5714
2013-08-28 0:37:17.639999999999873,51.2821
2013-08-28 0:37:18.809999999999945,52.6316
2013-08-28 0:37:19.949999999999818,54.0541
2013-08-28 0:37:21.059999999999945,51.2821
2013-08-28 0:37:24.829999999999927,45.4545
2013-08-28 0:37:26.150000000000091,52.6316
2013-08-28 0:37:27.289999999999964,48.3871
2013-08-28 0:37:31.510000000000218,42.2535
2013-08-28 0:37:32.929999999999836,45.4545
2013-08-28 0:37:38.4699999999998,47.619
2013-08-28 0:37:39.730000000000018,47.2441
2013-08-28 0:37:41.0,54.0541
2013-08-28 0:37:42.110000000000127,58.2524
2013-08-28 0:37:43.139999999999873,58.2524
2013-08-28 0:37:53.099999999999909,78.9474
2013-08-28 0:37:53.860000000000127,76.9231
2013-08-28 0:37:54.639999999999873,74.0741
2013-08-28 0:37:55.449999999999818,72.2892
2013-08-28 0:37:56.2800000000002,68.9655
2013-08-28 0:37:57.150000000000091,66.6667
2013-08-28 0:37:58.050000000000182,65.2174
2013-08-28 0:37:58.9699999999998,63.1579
2013-08-28 0:37:59.920000000000073,61.8557
2013-08-28 0:38:0.88999999999987267,60
2013-08-28 0:38:1.8899999999998727,59.4059
2013-08-28 0:38:2.9000000000000909,59.4059
2013-08-28 0:38:3.9099999999998545,59.4059
2013-08-28 0:38:4.9200000000000728,59.4059
2013-08-28 0:38:5.9299999999998363,58.2524
2013-08-28 0:38:6.9600000000000364,56.6038
2013-08-28 0:38:8.0199999999999818,56.0748
2013-08-28 0:38:9.0900000000001455,56.0748
2013-08-28 0:38:10.159999999999854,56.0748
2013-08-28 0:38:11.230000000000018,56.0748
2013-08-28 0:38:12.300000000000182,54.5455
2013-08-28 0:38:13.400000000000091,58.2524
2013-08-28 0:38:14.429999999999836,56.6038
2013-08-28 0:38:15.489999999999782,53.5714
2013-08-28 0:38:16.610000000000127,50
2013-08-28 0:38:17.809999999999945,48.7805
2013-08-28 0:38:19.039999999999964,52.1739
2013-08-28 0:38:20.190000000000055,50.8475
2013-08-28 0:38:24.389999999999873,42.8571
2013-08-28 0:38:25.789999999999964,50.8475
2013-08-28 0:38:26.9699999999998,45.1128
2013-08-28 0:38:28.300000000000182,52.6316
2013-08-28 0:38:29.440000000000055,50.4202
2013-08-28 0:38:30.630000000000109,50.4202
2013-08-28 0:38:31.820000000000164,56.0748
2013-08-28 0:38:32.889999999999873,58.8235
2013-08-28 0:38:39.670000000000073,74.0741
2013-08-28 0:38:40.480000000000018,72.2892
2013-08-28 0:38:41.309999999999945,68.9655
2013-08-28 0:38:42.179999999999836,67.4157
2013-08-28 0:38:43.070000000000164,65.9341
2013-08-28 0:38:43.980000000000018,64.5161
2013-08-28 0:38:44.909999999999854,63.8298
2013-08-28 0:38:45.849999999999909,63.8298
2013-08-28 0:38:46.789999999999964,63.1579
2013-08-28 0:38:47.739999999999782,63.1579
2013-08-28 0:38:48.690000000000055,63.1579
2013-08-28 0:38:49.639999999999873,63.8298
2013-08-28 0:38:50.579999999999927,63.8298
2013-08-28 0:38:51.519999999999982,63.8298
2013-08-28 0:38:52.460000000000036,63.8298
2013-08-28 0:38:53.400000000000091,63.1579
2013-08-28 0:38:54.349999999999909,62.5
2013-08-28 0:38:55.309999999999945,61.8557
2013-08-28 0:38:56.2800000000002,59.4059
2013-08-28 0:38:57.289999999999964,58.2524
2013-08-28 0:38:58.320000000000164,57.1429
2013-08-28 0:38:59.369999999999891,55.0459
2013-08-28 0:39:0.46000000000003638,53.5714
2013-08-28 0:39:1.5799999999999272,51.2821
2013-08-28 0:39:2.75,49.5868
2013-08-28 0:39:3.9600000000000364,55.0459
2013-08-28 0:39:5.0500000000001819,52.6316
2013-08-28 0:39:6.1900000000000546,47.619
2013-08-28 0:39:8.8200000000001637,44.4444
2013-08-28 0:39:10.170000000000073,47.619
2013-08-28 0:39:17.5300000000002,50.4202
2013-08-28 0:39:18.7199999999998,46.1538
2013-08-28 0:39:20.019999999999982,55.5556
2013-08-28 0:39:21.099999999999909,50.8475
2013-08-28 0:39:22.2800000000002,58.8235
2013-08-28 0:39:23.300000000000182,56.0748
2013-08-28 0:39:31.159999999999854,71.4286
2013-08-28 0:39:32.0,68.1818
2013-08-28 0:39:32.880000000000109,65.9341
2013-08-28 0:39:33.789999999999964,63.1579
2013-08-28 0:39:34.739999999999782,60
2013-08-28 0:39:35.739999999999782,59.4059
2013-08-28 0:39:36.75,57.1429
2013-08-28 0:39:37.800000000000182,56.0748
2013-08-28 0:39:38.869999999999891,56.6038
2013-08-28 0:39:39.929999999999836,56.0748
2013-08-28 0:39:41.0,56.6038
2013-08-28 0:39:42.059999999999945,58.2524
2013-08-28 0:39:43.090000000000146,61.2245
2013-08-28 0:39:44.070000000000164,60.6061
2013-08-28 0:39:45.059999999999945,61.2245
2013-08-28 0:39:46.039999999999964,62.5
2013-08-28 0:39:47.0,61.8557
2013-08-28 0:39:47.9699999999998,60.6061
2013-08-28 0:39:48.960000000000036,59.4059
2013-08-28 0:39:49.9699999999998,57.1429
2013-08-28 0:39:51.019999999999982,58.8235
2013-08-28 0:39:52.039999999999964,60
2013-08-28 0:39:53.039999999999964,57.1429
2013-08-28 0:39:54.090000000000146,52.1739
2013-08-28 0:39:55.239999999999782,49.1803
2013-08-28 0:39:56.460000000000036,51.2821
2013-08-28 0:39:57.630000000000109,51.2821
2013-08-28 0:40:3.0900000000001455,48.7805
2013-08-28 0:40:4.3200000000001637,48.3871
2013-08-28 0:40:7.0500000000001819,40.5405
2013-08-28 0:40:8.5300000000002001,48.7805
2013-08-28 0:40:9.7600000000002183,51.7241
2013-08-28 0:40:10.920000000000073,50
2013-08-28 0:40:12.119999999999891,57.6923
2013-08-28 0:40:13.159999999999854,50.8475
2013-08-28 0:40:14.340000000000146,49.5868
2013-08-28 0:40:15.550000000000182,48.7805
2013-08-28 0:40:17.7800000000002,61.8557
2013-08-28 0:40:24.460000000000036,73.1707
2013-08-28 0:40:25.2800000000002,71.4286
2013-08-28 0:40:26.119999999999891,69.7674
2013-08-28 0:40:26.980000000000018,67.4157
2013-08-28 0:40:27.869999999999891,64.5161
2013-08-28 0:40:28.800000000000182,61.8557
2013-08-28 0:40:29.769999999999982,61.8557
2013-08-28 0:40:30.739999999999782,61.8557
2013-08-28 0:40:31.710000000000036,62.5
2013-08-28 0:40:32.670000000000073,62.5
2013-08-28 0:40:33.630000000000109,62.5
2013-08-28 0:40:34.590000000000146,62.5
2013-08-28 0:40:35.550000000000182,61.2245
2013-08-28 0:40:36.5300000000002,59.4059
2013-08-28 0:40:37.539999999999964,55.0459
2013-08-28 0:40:38.630000000000109,55.0459
2013-08-28 0:40:39.7199999999998,54.5455
2013-08-28 0:40:40.820000000000164,54.5455
2013-08-28 0:40:41.920000000000073,53.5714
2013-08-28 0:40:43.039999999999964,52.1739
2013-08-28 0:40:44.190000000000055,51.2821
2013-08-28 0:40:45.360000000000127,55.0459
2013-08-28 0:40:46.449999999999818,56.6038
2013-08-28 0:40:47.510000000000218,52.1739
2013-08-28 0:40:48.659999999999854,47.2441
2013-08-28 0:40:51.2800000000002,48
2013-08-28 0:40:52.5300000000002,53.5714
2013-08-28 0:40:53.650000000000091,49.5868
2013-08-28 0:40:57.940000000000055,47.619
2013-08-28 0:40:59.199999999999818,49.5868
2013-08-28 0:41:0.40999999999985448,49.5868
2013-08-28 0:41:1.6199999999998909,50.8475
2013-08-28 0:41:2.8000000000001819,49.5868
2013-08-28 0:41:4.0100000000002183,56.0748
2013-08-28 0:41:5.0799999999999272,52.1739
2013-08-28 0:41:12.340000000000146,70.5882
2013-08-28 0:41:13.190000000000055,68.1818
2013-08-28 0:41:14.070000000000164,67.4157
2013-08-28 0:41:14.960000000000036,66.6667
2013-08-28 0:41:15.860000000000127,65.9341
2013-08-28 0:41:16.769999999999982,65.2174
2013-08-28 0:41:17.690000000000055,64.5161
2013-08-28 0:41:18.619999999999891,63.8298
2013-08-28 0:41:19.559999999999945,63.1579
2013-08-28 0:41:20.510000000000218,63.8298
2013-08-28 0:41:21.449999999999818,63.1579
2013-08-28 0:41:22.400000000000091,62.5
2013-08-28 0:41:23.360000000000127,63.1579
2013-08-28 0:41:24.309999999999945,63.1579
2013-08-28 0:41:25.260000000000218,63.8298
2013-08-28 0:41:26.199999999999818,64.5161
2013-08-28 0:41:27.130000000000109,63.8298
2013-08-28 0:41:28.070000000000164,63.1579
2013-08-28 0:41:29.019999999999982,62.5
2013-08-28 0:41:29.980000000000018,60.6061
2013-08-28 0:41:30.9699999999998,60
2013-08-28 0:41:31.9699999999998,59.4059
2013-08-28 0:41:32.980000000000018,58.2524
2013-08-28 0:41:34.010000000000218,55.5556
2013-08-28 0:41:35.090000000000146,54.0541
2013-08-28 0:41:36.199999999999818,54.0541
2013-08-28 0:41:37.309999999999945,55.5556
2013-08-28 0:41:38.389999999999873,56.0748
2013-08-28 0:41:39.460000000000036,51.7241
2013-08-28 0:41:43.230000000000018,48.3871
2013-08-28 0:41:44.4699999999998,51.7241
2013-08-28 0:41:45.630000000000109,48.7805
2013-08-28 0:41:49.849999999999909,46.875
2013-08-28 0:41:51.130000000000109,55.5556
2013-08-28 0:41:52.210000000000036,51.2821
2013-08-28 0:41:53.380000000000109,50.8475
2013-08-28 0:41:54.559999999999945,57.1429
2013-08-28 0:41:55.610000000000127,49.5868
2013-08-28 0:41:56.820000000000164,57.6923
2013-08-28 0:41:57.860000000000127,56.6038
2013-08-28 0:41:58.920000000000073,61.2245
2013-08-28 0:42:5.7899999999999636,73.1707
2013-08-28 0:42:6.6100000000001273,72.2892
2013-08-28 0:42:7.4400000000000546,75
2013-08-28 0:42:8.2399999999997817,75
2013-08-28 0:42:9.0399999999999636,74.0741
2013-08-28 0:42:9.8499999999999091,72.2892
2013-08-28 0:42:10.679999999999836,69.7674
2013-08-28 0:42:11.539999999999964,66.6667
2013-08-28 0:42:12.440000000000055,65.2174
2013-08-28 0:42:13.360000000000127,62.5
2013-08-28 0:42:14.320000000000164,61.8557
2013-08-28 0:42:15.289999999999964,60.6061
2013-08-28 0:42:16.2800000000002,60.6061
2013-08-28 0:42:17.269999999999982,60
2013-08-28 0:42:18.269999999999982,59.4059
2013-08-28 0:42:19.2800000000002,58.8235
2013-08-28 0:42:20.300000000000182,58.2524
2013-08-28 0:42:21.329999999999927,56.0748
2013-08-28 0:42:22.400000000000091,56.0748
2013-08-28 0:42:23.4699999999998,55.5556
2013-08-28 0:42:24.550000000000182,55.0459
2013-08-28 0:42:25.639999999999873,53.5714
2013-08-28 0:42:26.760000000000218,52.1739
2013-08-28 0:42:27.909999999999854,50.8475
2013-08-28 0:42:29.090000000000146,53.5714
2013-08-28 0:42:30.210000000000036,53.5714
2013-08-28 0:42:31.329999999999927,50.8475
2013-08-28 0:42:32.510000000000218,45.8015
2013-08-28 0:42:33.820000000000164,45.8015
2013-08-28 0:42:35.130000000000109,50.8475
2013-08-28 0:42:36.309999999999945,48.3871
2013-08-28 0:42:40.570000000000164,42.5532
2013-08-28 0:42:43.110000000000127,48.3871
2013-08-28 0:42:44.349999999999909,53.5714
2013-08-28 0:42:45.4699999999998,60
2013-08-28 0:42:46.4699999999998,54.0541
2013-08-28 0:42:47.579999999999927,54.0541
2013-08-28 0:42:49.630000000000109,63.8298
2013-08-28 0:42:56.25,75.9494
2013-08-28 0:42:57.039999999999964,75
2013-08-28 0:42:57.840000000000146,71.4286
2013-08-28 0:42:58.679999999999836,68.9655
2013-08-28 0:42:59.550000000000182,66.6667
2013-08-28 0:43:0.4499999999998181,64.5161
2013-08-28 0:43:1.3800000000001091,63.1579
2013-08-28 0:43:2.3299999999999272,63.1579
2013-08-28 0:43:3.2800000000002001,61.8557
2013-08-28 0:43:4.25,62.5
2013-08-28 0:43:5.2100000000000364,61.8557
2013-08-28 0:43:6.1799999999998363,61.8557
2013-08-28 0:43:7.1500000000000909,61.8557
2013-08-28 0:43:8.1199999999998909,61.2245
2013-08-28 0:43:9.0999999999999091,61.2245
2013-08-28 0:43:10.079999999999927,60.6061
2013-08-28 0:43:11.070000000000164,58.2524
2013-08-28 0:43:12.099999999999909,57.6923
2013-08-28 0:43:13.139999999999873,57.6923
2013-08-28 0:43:14.179999999999836,57.6923
2013-08-28 0:43:15.2199999999998,60
2013-08-28 0:43:16.2199999999998,61.2245
2013-08-28 0:43:17.199999999999818,55.0459
2013-08-28 0:43:18.289999999999964,50
2013-08-28 0:43:19.489999999999782,49.5868
2013-08-28 0:43:20.699999999999818,53.5714
2013-08-28 0:43:21.820000000000164,51.2821
2013-08-28 0:43:25.710000000000036,44.1176
2013-08-28 0:43:27.070000000000164,49.1803
2013-08-28 0:43:28.289999999999964,47.2441
2013-08-28 0:43:31.239999999999782,41.958
2013-08-28 0:43:33.820000000000164,48.3871
2013-08-28 0:43:35.059999999999945,55.0459
2013-08-28 0:43:36.150000000000091,53.0973
2013-08-28 0:43:37.2800000000002,53.0973
2013-08-28 0:43:46.5300000000002,77.9221
2013-08-28 0:43:47.300000000000182,75
2013-08-28 0:43:48.099999999999909,73.1707
2013-08-28 0:43:48.920000000000073,70.5882
2013-08-28 0:43:49.769999999999982,70.5882
2013-08-28 0:43:50.619999999999891,69.7674
2013-08-28 0:43:51.480000000000018,69.7674
2013-08-28 0:43:52.340000000000146,68.1818
2013-08-28 0:43:53.2199999999998,67.4157
2013-08-28 0:43:54.110000000000127,68.1818
2013-08-28 0:43:54.989999999999782,68.9655
2013-08-28 0:43:55.860000000000127,68.1818
2013-08-28 0:43:56.739999999999782,67.4157
2013-08-28 0:43:57.630000000000109,67.4157
2013-08-28 0:43:58.519999999999982,65.9341
2013-08-28 0:43:59.429999999999836,65.9341
2013-08-28 0:44:0.34000000000014552,65.2174
2013-08-28 0:44:1.2600000000002183,63.8298
2013-08-28 0:44:2.1999999999998181,63.1579
2013-08-28 0:44:3.1500000000000909,62.5
2013-08-28 0:44:4.1100000000001273,62.5
2013-08-28 0:44:5.0700000000001637,61.2245
2013-08-28 0:44:6.0500000000001819,59.4059
2013-08-28 0:44:7.0599999999999454,61.2245
2013-08-28 0:44:8.0399999999999636,61.2245
2013-08-28 0:44:9.0199999999999818,55.0459
2013-08-28 0:44:13.789999999999964,54.0541
2013-08-28 0:44:14.900000000000091,51.2821
2013-08-28 0:44:17.449999999999818,47.619
2013-08-28 0:44:18.710000000000036,53.5714
2013-08-28 0:44:19.829999999999927,51.2821
2013-08-28 0:44:21.0,53.0973
2013-08-28 0:44:22.130000000000109,54.5455
2013-08-28 0:44:23.230000000000018,50
2013-08-28 0:44:24.429999999999836,56.6038
2013-08-28 0:44:25.489999999999782,54.0541
2013-08-28 0:44:26.599999999999909,63.8298
2013-08-28 0:44:31.7199999999998,71.4286
2013-08-28 0:44:32.559999999999945,70.5882
2013-08-28 0:44:33.409999999999854,74.0741
2013-08-28 0:44:34.2199999999998,74.0741
2013-08-28 0:44:35.0300000000002,72.2892
2013-08-28 0:44:35.860000000000127,68.9655
2013-08-28 0:44:36.730000000000018,67.4157
2013-08-28 0:44:37.619999999999891,65.9341
2013-08-28 0:44:38.5300000000002,63.1579
2013-08-28 0:44:39.480000000000018,62.5
2013-08-28 0:44:40.440000000000055,60
2013-08-28 0:44:41.440000000000055,60
2013-08-28 0:44:42.440000000000055,59.4059
2013-08-28 0:44:43.449999999999818,59.4059
2013-08-28 0:44:44.460000000000036,58.8235
2013-08-28 0:44:45.480000000000018,58.2524
2013-08-28 0:44:46.510000000000218,58.2524
2013-08-28 0:44:47.539999999999964,56.0748
2013-08-28 0:44:48.610000000000127,55.0459
2013-08-28 0:44:49.699999999999818,55.0459
2013-08-28 0:44:50.789999999999964,54.5455
2013-08-28 0:44:51.889999999999873,54.0541
2013-08-28 0:44:53.0,53.5714
2013-08-28 0:44:54.119999999999891,56.0748
2013-08-28 0:44:55.190000000000055,56.0748
2013-08-28 0:44:56.260000000000218,56.6038
2013-08-28 0:44:57.320000000000164,57.1429
2013-08-28 0:44:58.369999999999891,58.2524
2013-08-28 0:44:59.400000000000091,59.4059
2013-08-28 0:45:0.40999999999985448,54.5455
2013-08-28 0:45:1.5100000000002183,51.7241
2013-08-28 0:45:2.6700000000000728,49.5868
2013-08-28 0:45:3.8800000000001091,55.0459
2013-08-28 0:45:4.9699999999997999,53.0973
2013-08-28 0:45:6.0999999999999091,46.875
2013-08-28 0:45:7.3800000000001091,48
2013-08-28 0:45:8.6300000000001091,52.1739
2013-08-28 0:45:9.7800000000002001,56.6038
2013-08-28 0:45:10.840000000000146,63.8298
2013-08-28 0:45:12.909999999999854,57.1429
2013-08-28 0:45:13.960000000000036,56.0748
2013-08-28 0:45:15.0300000000002,50.4202
2013-08-28 0:45:16.2199999999998,60
2013-08-28 0:45:17.2199999999998,58.2524
2013-08-28 0:45:18.25,60.6061
2013-08-28 0:45:24.230000000000018,74.0741
2013-08-28 0:45:25.039999999999964,71.4286
2013-08-28 0:45:25.880000000000109,69.7674
2013-08-28 0:45:26.739999999999782,69.7674
2013-08-28 0:45:27.599999999999909,68.1818
2013-08-28 0:45:28.480000000000018,66.6667
2013-08-28 0:45:29.380000000000109,65.9341
2013-08-28 0:45:30.289999999999964,64.5161
2013-08-28 0:45:31.2199999999998,65.9341
2013-08-28 0:45:32.130000000000109,65.9341
2013-08-28 0:45:33.039999999999964,66.6667
2013-08-28 0:45:33.940000000000055,66.6667
2013-08-28 0:45:34.840000000000146,66.6667
2013-08-28 0:45:35.739999999999782,65.2174
2013-08-28 0:45:36.659999999999854,63.1579
2013-08-28 0:45:37.610000000000127,61.8557
2013-08-28 0:45:38.579999999999927,58.8235
2013-08-28 0:45:39.599999999999909,57.6923
2013-08-28 0:45:40.639999999999873,55.0459
2013-08-28 0:45:41.730000000000018,56.0748
2013-08-28 0:45:42.800000000000182,55.5556
2013-08-28 0:45:43.880000000000109,55.0459
2013-08-28 0:45:44.9699999999998,56.0748
2013-08-28 0:45:46.039999999999964,57.6923
2013-08-28 0:45:47.079999999999927,53.5714
2013-08-28 0:45:48.199999999999818,50.8475
2013-08-28 0:45:49.380000000000109,50
2013-08-28 0:45:50.579999999999927,52.6316
2013-08-28 0:45:51.7199999999998,49.5868
2013-08-28 0:45:55.829999999999927,45.4545
2013-08-28 0:45:57.150000000000091,46.5116
2013-08-28 0:45:59.9699999999998,48.3871
2013-08-28 0:46:1.2100000000000364,53.0973
2013-08-28 0:46:2.3400000000001455,48
2013-08-28 0:46:3.5900000000001455,57.1429
2013-08-28 0:46:4.6399999999998727,50.8475
2013-08-28 0:46:5.8200000000001637,58.8235
2013-08-28 0:46:6.8400000000001455,53.5714
2013-08-28 0:46:7.9600000000000364,60.6061
2013-08-28 0:46:8.9499999999998181,63.1579
2013-08-28 0:46:17.050000000000182,74.0741
2013-08-28 0:46:17.860000000000127,72.2892
2013-08-28 0:46:18.690000000000055,68.1818
2013-08-28 0:46:19.570000000000164,65.2174
2013-08-28 0:46:20.489999999999782,64.5161
2013-08-28 0:46:21.420000000000073,64.5161
2013-08-28 0:46:22.349999999999909,65.2174
2013-08-28 0:46:23.269999999999982,65.2174
2013-08-28 0:46:24.190000000000055,65.9341
2013-08-28 0:46:25.099999999999909,65.2174
2013-08-28 0:46:26.019999999999982,63.8298
2013-08-28 0:46:26.960000000000036,63.1579
2013-08-28 0:46:27.909999999999854,60.6061
2013-08-28 0:46:28.900000000000091,60
2013-08-28 0:46:29.900000000000091,60
2013-08-28 0:46:30.900000000000091,58.8235
2013-08-28 0:46:31.920000000000073,57.6923
2013-08-28 0:46:32.960000000000036,60
2013-08-28 0:46:33.960000000000036,59.4059
2013-08-28 0:46:34.9699999999998,56.6038
2013-08-28 0:46:36.0300000000002,55.0459
2013-08-28 0:46:37.119999999999891,54.5455
2013-08-28 0:46:38.2199999999998,53.5714
2013-08-28 0:46:39.340000000000146,56.6038
2013-08-28 0:46:40.400000000000091,58.8235
2013-08-28 0:46:41.420000000000073,54.0541
2013-08-28 0:46:42.5300000000002,49.5868
2013-08-28 0:46:43.739999999999782,48.7805
2013-08-28 0:46:44.9699999999998,52.1739
2013-08-28 0:46:46.119999999999891,51.2821
2013-08-28 0:46:51.730000000000018,46.5116
2013-08-28 0:46:54.570000000000164,46.875
2013-08-28 0:46:55.849999999999909,44.1176
2013-08-28 0:46:57.210000000000036,50.8475
2013-08-28 0:46:58.389999999999873,48.7805
2013-08-28 0:46:59.619999999999891,53.0973
2013-08-28 0:47:0.75,54.5455
2013-08-28 0:47:1.8499999999999091,58.2524
2013-08-28 0:47:10.190000000000055,75.9494
2013-08-28 0:47:10.980000000000018,73.1707
2013-08-28 0:47:11.800000000000182,69.7674
2013-08-28 0:47:12.659999999999854,67.4157
2013-08-28 0:47:13.550000000000182,65.2174
2013-08-28 0:47:14.4699999999998,65.2174
2013-08-28 0:47:15.389999999999873,65.9341
2013-08-28 0:47:16.300000000000182,65.2174
2013-08-28 0:47:17.2199999999998,64.5161
2013-08-28 0:47:18.150000000000091,63.8298
2013-08-28 0:47:19.090000000000146,63.1579
2013-08-28 0:47:20.039999999999964,61.8557
2013-08-28 0:47:21.010000000000218,61.8557
2013-08-28 0:47:21.980000000000018,61.8557
2013-08-28 0:47:22.949999999999818,61.2245
2013-08-28 0:47:23.929999999999836,61.8557
2013-08-28 0:47:24.900000000000091,61.8557
2013-08-28 0:47:25.869999999999891,61.2245
2013-08-28 0:47:26.849999999999909,57.6923
2013-08-28 0:47:27.889999999999873,57.6923
2013-08-28 0:47:28.929999999999836,57.6923
2013-08-28 0:47:29.9699999999998,57.1429
2013-08-28 0:47:31.019999999999982,55.5556
2013-08-28 0:47:32.099999999999909,55.0459
2013-08-28 0:47:33.190000000000055,56.0748
2013-08-28 0:47:34.260000000000218,58.2524
2013-08-28 0:47:35.289999999999964,53.5714
2013-08-28 0:47:36.409999999999854,51.2821
2013-08-28 0:47:37.579999999999927,50.4202
2013-08-28 0:47:38.769999999999982,54.5455
2013-08-28 0:47:39.869999999999891,53.0973
2013-08-28 0:47:45.550000000000182,44.4444
2013-08-28 0:47:46.900000000000091,50
2013-08-28 0:47:48.099999999999909,48
2013-08-28 0:47:49.349999999999909,55.0459
2013-08-28 0:47:50.440000000000055,50.8475
2013-08-28 0:47:51.619999999999891,55.0459
2013-08-28 0:47:52.710000000000036,57.1429
2013-08-28 0:47:53.760000000000218,54.0541
2013-08-28 0:47:54.869999999999891,63.1579
2013-08-28 0:47:55.820000000000164,62.5
2013-08-28 0:47:56.7800000000002,63.8298
2013-08-28 0:48:2.6100000000001273,70.5882
2013-08-28 0:48:3.4600000000000364,68.1818
2013-08-28 0:48:4.3400000000001455,65.2174
2013-08-28 0:48:5.2600000000002183,61.8557
2013-08-28 0:48:6.2300000000000182,60
2013-08-28 0:48:7.2300000000000182,59.4059
2013-08-28 0:48:8.2399999999997817,57.6923
2013-08-28 0:48:9.2800000000002001,56.6038
2013-08-28 0:48:10.340000000000146,56.0748
2013-08-28 0:48:11.409999999999854,56.0748
2013-08-28 0:48:12.480000000000018,56.6038
2013-08-28 0:48:13.539999999999964,57.1429
2013-08-28 0:48:14.590000000000146,58.2524
2013-08-28 0:48:15.619999999999891,59.4059
2013-08-28 0:48:16.630000000000109,60.6061
2013-08-28 0:48:17.619999999999891,59.4059
2013-08-28 0:48:18.630000000000109,58.2524
2013-08-28 0:48:19.659999999999854,57.1429
2013-08-28 0:48:20.710000000000036,56.0748
2013-08-28 0:48:21.7800000000002,54.5455
2013-08-28 0:48:22.880000000000109,53.5714
2013-08-28 0:48:24.0,56.0748
2013-08-28 0:48:25.070000000000164,54.5455
2013-08-28 0:48:26.170000000000073,50.8475
2013-08-28 0:48:27.349999999999909,47.2441
2013-08-28 0:48:28.619999999999891,48.3871
2013-08-28 0:48:29.860000000000127,50.4202
2013-08-28 0:48:31.050000000000182,48
2013-08-28 0:48:35.230000000000018,44.7761
2013-08-28 0:48:36.570000000000164,42.5532
2013-08-28 0:48:43.079999999999927,50.8475
2013-08-28 0:48:44.260000000000218,48
2013-08-28 0:48:45.510000000000218,52.6316
2013-08-28 0:48:46.650000000000091,56.0748
2013-08-28 0:48:47.7199999999998,51.7241
2013-08-28 0:48:59.590000000000146,78.9474
2013-08-28 0:49:0.34999999999990905,78.9474
2013-08-28 0:49:1.1100000000001273,78.9474
2013-08-28 0:49:1.8699999999998909,76.9231
2013-08-28 0:49:2.6500000000000909,75
2013-08-28 0:49:3.4499999999998181,72.2892
2013-08-28 0:49:4.2800000000002001,68.1818
2013-08-28 0:49:5.1599999999998545,66.6667
2013-08-28 0:49:6.0599999999999454,63.8298
2013-08-28 0:49:7.0,62.5
2013-08-28 0:49:7.9600000000000364,61.8557
2013-08-28 0:49:8.9299999999998363,61.2245
2013-08-28 0:49:9.9099999999998545,60.6061
2013-08-28 0:49:10.900000000000091,60
2013-08-28 0:49:11.900000000000091,58.8235
2013-08-28 0:49:12.920000000000073,58.2524
2013-08-28 0:49:13.949999999999818,57.6923
2013-08-28 0:49:14.989999999999782,56.6038
2013-08-28 0:49:16.050000000000182,55.0459
2013-08-28 0:49:17.139999999999873,53.5714
2013-08-28 0:49:18.260000000000218,54.0541
2013-08-28 0:49:19.369999999999891,53.5714
2013-08-28 0:49:20.489999999999782,56.0748
2013-08-28 0:49:21.559999999999945,58.8235
2013-08-28 0:49:22.579999999999927,59.4059
2013-08-28 0:49:23.590000000000146,55.0459
2013-08-28 0:49:27.260000000000218,49.5868
2013-08-28 0:49:28.4699999999998,47.619
2013-08-28 0:49:32.9699999999998,41.958
2013-08-28 0:49:34.400000000000091,51.2821
2013-08-28 0:49:35.570000000000164,48.3871
2013-08-28 0:49:36.809999999999945,50.4202
2013-08-28 0:49:38.0,55.0459
2013-08-28 0:49:39.090000000000146,49.5868
2013-08-28 0:49:40.300000000000182,58.8235
2013-08-28 0:49:41.320000000000164,58.8235
2013-08-28 0:49:42.340000000000146,61.2245
2013-08-28 0:49:49.809999999999945,75.9494
2013-08-28 0:49:50.599999999999909,73.1707
2013-08-28 0:49:51.420000000000073,68.9655
2013-08-28 0:49:52.289999999999964,65.2174
2013-08-28 0:49:53.210000000000036,63.1579
2013-08-28 0:49:54.159999999999854,60.6061
2013-08-28 0:49:55.150000000000091,60.6061
2013-08-28 0:49:56.139999999999873,59.4059
2013-08-28 0:49:57.150000000000091,58.2524
2013-08-28 0:49:58.179999999999836,58.8235
2013-08-28 0:49:59.199999999999818,58.8235
2013-08-28 0:50:0.21999999999979991,58.8235
2013-08-28 0:50:1.2399999999997817,58.8235
2013-08-28 0:50:2.2600000000002183,57.6923
2013-08-28 0:50:3.3000000000001819,57.6923
2013-08-28 0:50:4.3400000000001455,57.1429
2013-08-28 0:50:5.3899999999998727,56.0748
2013-08-28 0:50:6.4600000000000364,55.0459
2013-08-28 0:50:7.5500000000001819,53.0973
2013-08-28 0:50:8.6799999999998363,53.0973
2013-08-28 0:50:9.8099999999999454,57.1429
2013-08-28 0:50:10.860000000000127,58.2524
2013-08-28 0:50:11.889999999999873,55.5556
2013-08-28 0:50:12.9699999999998,47.619
2013-08-28 0:50:15.550000000000182,49.5868
2013-08-28 0:50:16.760000000000218,46.1538
2013-08-28 0:50:21.0300000000002,44.7761
2013-08-28 0:50:22.369999999999891,41.6667
2013-08-28 0:50:23.809999999999945,45.1128
2013-08-28 0:50:25.139999999999873,51.7241
2013-08-28 0:50:26.300000000000182,48.3871
2013-08-28 0:50:27.539999999999964,55.5556
2013-08-28 0:50:28.619999999999891,55.0459
2013-08-28 0:50:29.710000000000036,47.2441
2013-08-28 0:50:30.980000000000018,50.4202
2013-08-28 0:50:32.170000000000073,56.0748
2013-08-28 0:50:40.389999999999873,76.9231
2013-08-28 0:50:41.170000000000073,75
2013-08-28 0:50:41.9699999999998,72.2892
2013-08-28 0:50:42.800000000000182,68.9655
2013-08-28 0:50:43.670000000000073,66.6667
2013-08-28 0:50:44.570000000000164,65.2174
2013-08-28 0:50:45.489999999999782,64.5161
2013-08-28 0:50:46.420000000000073,63.8298
2013-08-28 0:50:47.360000000000127,63.1579
2013-08-28 0:50:48.309999999999945,62.5
2013-08-28 0:50:49.269999999999982,61.8557
2013-08-28 0:50:50.239999999999782,61.8557
2013-08-28 0:50:51.210000000000036,60.6061
2013-08-28 0:50:52.199999999999818,61.2245
2013-08-28 0:50:53.179999999999836,60.6061
2013-08-28 0:50:54.170000000000073,61.2245
2013-08-28 0:50:55.150000000000091,61.8557
2013-08-28 0:50:56.119999999999891,61.8557
2013-08-28 0:50:57.090000000000146,60
2013-08-28 0:50:58.090000000000146,58.2524
2013-08-28 0:50:59.119999999999891,55.0459
2013-08-28 0:51:0.21000000000003638,57.6923
2013-08-28 0:51:1.25,56.6038
2013-08-28 0:51:2.3099999999999454,53.5714
2013-08-28 0:51:3.4299999999998363,50
2013-08-28 0:51:7.2600000000002183,48.7805
2013-08-28 0:51:8.4899999999997817,50
2013-08-28 0:51:12.5300000000002,50.4202
2013-08-28 0:51:13.7199999999998,47.2441
2013-08-28 0:51:14.989999999999782,45.8015
2013-08-28 0:51:17.349999999999909,55.5556
2013-08-28 0:51:18.429999999999836,48.7805
2013-08-28 0:51:19.659999999999854,57.1429
2013-08-28 0:51:27.179999999999836,75.9494
2013-08-28 0:51:27.9699999999998,76.9231
2013-08-28 0:51:28.75,74.0741
2013-08-28 0:51:29.559999999999945,69.7674
2013-08-28 0:51:30.420000000000073,68.1818
2013-08-28 0:51:31.300000000000182,65.9341
2013-08-28 0:51:32.210000000000036,63.8298
2013-08-28 0:51:33.150000000000091,62.5
2013-08-28 0:51:34.110000000000127,63.1579
2013-08-28 0:51:35.059999999999945,63.8298
2013-08-28 0:51:36.0,63.1579
2013-08-28 0:51:36.949999999999818,63.1579
2013-08-28 0:51:37.900000000000091,61.8557
2013-08-28 0:51:38.869999999999891,61.2245
2013-08-28 0:51:39.849999999999909,60
2013-08-28 0:51:40.849999999999909,58.8235
2013-08-28 0:51:41.869999999999891,57.1429
2013-08-28 0:51:42.920000000000073,56.6038
2013-08-28 0:51:43.980000000000018,56.0748
2013-08-28 0:51:45.050000000000182,54.0541
2013-08-28 0:51:46.159999999999854,51.7241
2013-08-28 0:51:47.320000000000164,54.5455
2013-08-28 0:51:48.420000000000073,55.5556
2013-08-28 0:51:49.5,50.8475
2013-08-28 0:51:50.679999999999836,47.619
2013-08-28 0:51:51.940000000000055,47.2441
2013-08-28 0:51:53.210000000000036,48.3871
2013-08-28 0:51:54.449999999999818,52.1739
2013-08-28 0:51:55.599999999999909,50
2013-08-28 0:51:56.800000000000182,44.1176
2013-08-28 0:51:58.159999999999854,44.7761
2013-08-28 0:51:59.5,53.0973
2013-08-28 0:52:0.63000000000010914,48
2013-08-28 0:52:1.8800000000001091,46.875
2013-08-28 0:52:3.1599999999998545,55.0459
2013-08-28 0:52:4.25,47.619
2013-08-28 0:52:5.5100000000002183,54.5455
2013-08-28 0:52:6.6100000000001273,56.0748
2013-08-28 0:52:14.340000000000146,75
2013-08-28 0:52:15.139999999999873,75
2013-08-28 0:52:15.940000000000055,71.4286
2013-08-28 0:52:16.7800000000002,68.9655
2013-08-28 0:52:17.650000000000091,68.1818
2013-08-28 0:52:18.5300000000002,67.4157
2013-08-28 0:52:19.420000000000073,67.4157
2013-08-28 0:52:20.309999999999945,67.4157
2013-08-28 0:52:21.199999999999818,65.9341
2013-08-28 0:52:22.110000000000127,65.2174
2013-08-28 0:52:23.0300000000002,65.9341
2013-08-28 0:52:23.940000000000055,66.6667
2013-08-28 0:52:24.840000000000146,66.6667
2013-08-28 0:52:25.739999999999782,67.4157
2013-08-28 0:52:26.630000000000109,65.2174
2013-08-28 0:52:27.550000000000182,63.8298
2013-08-28 0:52:28.489999999999782,62.5
2013-08-28 0:52:29.449999999999818,62.5
2013-08-28 0:52:30.409999999999854,60.6061
2013-08-28 0:52:31.400000000000091,58.8235
2013-08-28 0:52:32.420000000000073,57.1429
2013-08-28 0:52:33.4699999999998,55.0459
2013-08-28 0:52:34.559999999999945,55.0459
2013-08-28 0:52:35.650000000000091,54.0541
2013-08-28 0:52:36.760000000000218,56.6038
2013-08-28 0:52:37.820000000000164,55.5556
2013-08-28 0:52:38.900000000000091,52.1739
2013-08-28 0:52:40.050000000000182,49.1803
2013-08-28 0:52:41.269999999999982,49.1803
2013-08-28 0:52:42.489999999999782,53.0973
2013-08-28 0:52:43.619999999999891,50
2013-08-28 0:52:47.599999999999909,44.4444
2013-08-28 0:52:48.949999999999818,53.0973
2013-08-28 0:52:50.079999999999927,53.0973
2013-08-28 0:52:51.210000000000036,48.7805
2013-08-28 0:52:52.440000000000055,57.6923
2013-08-28 0:52:53.480000000000018,53.5714
2013-08-28 0:52:54.599999999999909,48.3871
2013-08-28 0:52:56.860000000000127,61.8557
2013-08-28 0:52:57.829999999999927,63.8298
2013-08-28 0:53:3.6100000000001273,75
2013-08-28 0:53:4.4099999999998545,73.1707
2013-08-28 0:53:5.2300000000000182,69.7674
2013-08-28 0:53:6.0900000000001455,68.1818
2013-08-28 0:53:6.9699999999997999,63.8298
2013-08-28 0:53:7.9099999999998545,61.8557
2013-08-28 0:53:8.8800000000001091,60.6061
2013-08-28 0:53:9.8699999999998909,60
2013-08-28 0:53:10.869999999999891,59.4059
2013-08-28 0:53:11.880000000000109,59.4059
2013-08-28 0:53:12.889999999999873,60
2013-08-28 0:53:13.889999999999873,60
2013-08-28 0:53:14.889999999999873,59.4059
2013-08-28 0:53:15.900000000000091,58.2524
2013-08-28 0:53:16.929999999999836,57.1429
2013-08-28 0:53:17.980000000000018,57.1429
2013-08-28 0:53:19.0300000000002,58.2524
2013-08-28 0:53:20.059999999999945,60
2013-08-28 0:53:21.059999999999945,60
2013-08-28 0:53:22.059999999999945,59.4059
2013-08-28 0:53:23.070000000000164,59.4059
2013-08-28 0:53:24.079999999999927,55.0459
2013-08-28 0:53:25.170000000000073,50.4202
2013-08-28 0:53:26.360000000000127,50.4202
2013-08-28 0:53:27.550000000000182,52.1739
2013-08-28 0:53:32.949999999999818,42.8571
2013-08-28 0:53:34.349999999999909,50.4202
2013-08-28 0:53:35.539999999999964,41.3793
2013-08-28 0:53:36.989999999999782,40
2013-08-28 0:53:38.489999999999782,46.875
2013-08-28 0:53:40.809999999999945,57.6923
2013-08-28 0:53:41.849999999999909,48.3871
2013-08-28 0:53:43.090000000000146,58.2524
2013-08-28 0:53:44.119999999999891,56.0748
2013-08-28 0:53:45.190000000000055,54.5455
2013-08-28 0:53:46.289999999999964,62.5
2013-08-28 0:53:47.25,61.2245
2013-08-28 0:53:56.210000000000036,77.9221
2013-08-28 0:53:56.980000000000018,75
2013-08-28 0:53:57.7800000000002,70.5882
2013-08-28 0:53:58.630000000000109,68.1818
2013-08-28 0:53:59.510000000000218,65.9341
2013-08-28 0:54:0.42000000000007276,64.5161
2013-08-28 0:54:1.3499999999999091,65.9341
2013-08-28 0:54:2.2600000000002183,65.2174
2013-08-28 0:54:3.1799999999998363,64.5161
2013-08-28 0:54:4.1100000000001273,63.8298
2013-08-28 0:54:5.0500000000001819,63.1579
2013-08-28 0:54:6.0,63.8298
2013-08-28 0:54:6.9400000000000546,63.8298
2013-08-28 0:54:7.8800000000001091,64.5161
2013-08-28 0:54:8.8099999999999454,65.9341
2013-08-28 0:54:9.7199999999997999,67.4157
2013-08-28 0:54:10.610000000000127,67.4157
2013-08-28 0:54:11.5,63.8298
2013-08-28 0:54:12.440000000000055,61.2245
2013-08-28 0:54:13.420000000000073,57.1429
2013-08-28 0:54:14.4699999999998,54.5455
2013-08-28 0:54:15.570000000000164,53.5714
2013-08-28 0:54:16.690000000000055,56.0748
2013-08-28 0:54:17.760000000000218,54.5455
2013-08-28 0:54:18.860000000000127,50.4202
2013-08-28 0:54:20.050000000000182,49.5868
2013-08-28 0:54:21.260000000000218,51.2821
2013-08-28 0:54:22.429999999999836,54.5455
2013-08-28 0:54:23.5300000000002,52.6316
2013-08-28 0:54:24.670000000000073,49.5868
2013-08-28 0:54:25.880000000000109,53.5714
2013-08-28 0:54:27.0,55.0459
2013-08-28 0:54:29.440000000000055,48
2013-08-28 0:54:30.690000000000055,55.0459
2013-08-28 0:54:31.7800000000002,50.4202
2013-08-28 0:54:32.9699999999998,58.2524
2013-08-28 0:54:39.769999999999982,73.1707
2013-08-28 0:54:40.590000000000146,73.1707
2013-08-28 0:54:41.409999999999854,71.4286
2013-08-28 0:54:42.25,68.9655
2013-08-28 0:54:43.119999999999891,67.4157
2013-08-28 0:54:44.010000000000218,65.2174
2013-08-28 0:54:44.929999999999836,65.2174
2013-08-28 0:54:45.849999999999909,65.2174
2013-08-28 0:54:46.769999999999982,64.5161
2013-08-28 0:54:47.699999999999818,65.2174
2013-08-28 0:54:48.619999999999891,64.5161
2013-08-28 0:54:49.550000000000182,64.5161
2013-08-28 0:54:50.480000000000018,65.9341
2013-08-28 0:54:51.389999999999873,66.6667
2013-08-28 0:54:52.289999999999964,68.1818
2013-08-28 0:54:53.170000000000073,68.9655
2013-08-28 0:54:54.039999999999964,68.1818
2013-08-28 0:54:54.920000000000073,68.1818
2013-08-28 0:54:55.800000000000182,66.6667
2013-08-28 0:54:56.699999999999818,65.2174
2013-08-28 0:54:57.619999999999891,64.5161
2013-08-28 0:54:58.550000000000182,63.1579
2013-08-28 0:54:59.5,61.8557
2013-08-28 0:55:0.46999999999979991,61.8557
2013-08-28 0:55:1.4400000000000546,61.2245
2013-08-28 0:55:2.4200000000000728,60.6061
2013-08-28 0:55:3.4099999999998545,59.4059
2013-08-28 0:55:4.4200000000000728,57.6923
2013-08-28 0:55:5.4600000000000364,56.0748
2013-08-28 0:55:6.5300000000002001,57.1429
2013-08-28 0:55:7.5799999999999272,58.2524
2013-08-28 0:55:8.6100000000001273,52.1739
2013-08-28 0:55:13.5300000000002,55.0459
2013-08-28 0:55:14.619999999999891,57.1429
2013-08-28 0:55:15.670000000000073,54.0541
2013-08-28 0:55:16.7800000000002,50.4202
2013-08-28 0:55:17.9699999999998,57.6923
2013-08-28 0:55:19.010000000000218,57.1429
2013-08-28 0:55:20.059999999999945,50
2013-08-28 0:55:21.260000000000218,57.1429
2013-08-28 0:55:22.309999999999945,54.0541
2013-08-28 0:55:23.420000000000073,50.4202
2013-08-28 0:55:25.599999999999909,63.1579
2013-08-28 0:55:26.550000000000182,66.6667
2013-08-28 0:55:32.210000000000036,75
2013-08-28 0:55:33.010000000000218,73.1707
2013-08-28 0:55:33.829999999999927,71.4286
2013-08-28 0:55:34.670000000000073,68.9655
2013-08-28 0:55:35.539999999999964,65.9341
2013-08-28 0:55:36.449999999999818,64.5161
2013-08-28 0:55:37.380000000000109,62.5
2013-08-28 0:55:38.340000000000146,61.8557
2013-08-28 0:55:39.309999999999945,61.2245
2013-08-28 0:55:40.289999999999964,61.8557
2013-08-28 0:55:41.260000000000218,61.2245
2013-08-28 0:55:42.239999999999782,62.5
2013-08-28 0:55:43.199999999999818,62.5
2013-08-28 0:55:44.159999999999854,61.8557
2013-08-28 0:55:45.130000000000109,62.5
2013-08-28 0:55:46.090000000000146,61.8557
2013-08-28 0:55:47.059999999999945,62.5
2013-08-28 0:55:48.019999999999982,63.1579
2013-08-28 0:55:48.9699999999998,64.5161
2013-08-28 0:55:49.900000000000091,63.8298
2013-08-28 0:55:50.840000000000146,63.1579
2013-08-28 0:55:51.789999999999964,60.6061
2013-08-28 0:55:52.7800000000002,56.0748
2013-08-28 0:55:53.849999999999909,55.5556
2013-08-28 0:55:54.929999999999836,54.5455
2013-08-28 0:55:56.0300000000002,55.0459
2013-08-28 0:55:57.119999999999891,55.5556
2013-08-28 0:55:58.199999999999818,57.6923
2013-08-28 0:55:59.239999999999782,52.1739
2013-08-28 0:56:0.38999999999987267,48.3871
2013-08-28 0:56:1.6300000000001091,48
2013-08-28 0:56:2.8800000000001091,51.7241
2013-08-28 0:56:4.0399999999999636,50
2013-08-28 0:56:8.1100000000001273,46.1538
2013-08-28 0:56:9.4099999999998545,52.6316
2013-08-28 0:56:10.550000000000182,49.5868
2013-08-28 0:56:11.760000000000218,49.1803
2013-08-28 0:56:12.980000000000018,55.5556
2013-08-28 0:56:14.059999999999945,50.4202
2013-08-28 0:56:15.25,53.0973
2013-08-28 0:56:16.380000000000109,55.0459
2013-08-28 0:56:24.869999999999891,75.9494
2013-08-28 0:56:25.659999999999854,73.1707
2013-08-28 0:56:26.480000000000018,72.2892
2013-08-28 0:56:27.309999999999945,71.4286
2013-08-28 0:56:28.150000000000091,73.1707
2013-08-28 0:56:28.9699999999998,75
2013-08-28 0:56:29.769999999999982,75
2013-08-28 0:56:30.570000000000164,74.0741
2013-08-28 0:56:31.380000000000109,72.2892
2013-08-28 0:56:32.210000000000036,68.9655
2013-08-28 0:56:33.079999999999927,67.4157
2013-08-28 0:56:33.9699999999998,65.2174
2013-08-28 0:56:34.889999999999873,63.1579
2013-08-28 0:56:35.840000000000146,62.5
2013-08-28 0:56:36.800000000000182,61.8557
2013-08-28 0:56:37.769999999999982,60.6061
2013-08-28 0:56:38.760000000000218,59.4059
2013-08-28 0:56:39.769999999999982,60
2013-08-28 0:56:40.769999999999982,59.4059
2013-08-28 0:56:41.7800000000002,58.8235
2013-08-28 0:56:42.800000000000182,56.0748
2013-08-28 0:56:43.869999999999891,54.5455
2013-08-28 0:56:44.9699999999998,54.5455
2013-08-28 0:56:46.070000000000164,54.0541
2013-08-28 0:56:47.179999999999836,51.2821
2013-08-28 0:56:50.940000000000055,46.875
2013-08-28 0:56:52.2199999999998,53.0973
2013-08-28 0:56:53.349999999999909,54.5455
2013-08-28 0:56:54.449999999999818,46.5116
2013-08-28 0:56:55.739999999999782,47.2441
2013-08-28 0:56:57.010000000000218,55.0459
2013-08-28 0:56:58.099999999999909,46.875
2013-08-28 0:56:59.380000000000109,48.7805
2013-08-28 0:57:0.61000000000012733,57.1429
2013-08-28 0:57:1.6599999999998545,54.0541
2013-08-28 0:57:2.7699999999999818,57.6923
2013-08-28 0:57:3.8099999999999454,63.1579
2013-08-28 0:57:4.7600000000002183,63.1579
2013-08-28 0:57:11.369999999999891,74.0741
2013-08-28 0:57:12.179999999999836,72.2892
2013-08-28 0:57:13.010000000000218,68.9655
2013-08-28 0:57:13.880000000000109,65.2174
2013-08-28 0:57:14.800000000000182,62.5
2013-08-28 0:57:15.760000000000218,60.6061
2013-08-28 0:57:16.75,59.4059
2013-08-28 0:57:17.760000000000218,58.8235
2013-08-28 0:57:18.7800000000002,59.4059
2013-08-28 0:57:19.789999999999964,58.8235
2013-08-28 0:57:20.809999999999945,58.8235
2013-08-28 0:57:21.829999999999927,59.4059
2013-08-28 0:57:22.840000000000146,61.2245
2013-08-28 0:57:23.820000000000164,62.5
