Time,Datapoint
2013-08-28 0:0:3.0600000000000001,78.9474
2013-08-28 0:0:3.8199999999999998,77.9221
2013-08-28 0:0:4.5899999999999999,77.9221
2013-08-28 0:0:5.3600000000000003,76.9231
2013-08-28 0:0:6.1399999999999997,78.9474
2013-08-28 0:0:6.9000000000000004,78.9474
2013-08-28 0:0:7.6600000000000001,78.9474
2013-08-28 0:0:8.4199999999999999,78.9474
2013-08-28 0:0:9.1799999999999997,80
2013-08-28 0:0:9.9299999999999997,78.9474
2013-08-28 0:0:10.69,78.9474
2013-08-28 0:0:11.449999999999999,80
2013-08-28 0:0:12.199999999999999,78.9474
2013-08-28 0:0:12.960000000000001,78.9474
2013-08-28 0:0:13.720000000000001,78.9474
2013-08-28 0:0:14.48,78.9474
2013-08-28 0:0:15.24,78.9474
2013-08-28 0:0:16.0,78.9474
2013-08-28 0:0:16.760000000000002,78.9474
2013-08-28 0:0:17.52,77.9221
2013-08-28 0:0:18.289999999999999,78.9474
2013-08-28 0:0:19.050000000000001,77.9221
2013-08-28 0:0:19.82,78.9474
2013-08-28 0:0:20.579999999999998,77.9221
2013-08-28 0:0:21.350000000000001,77.9221
2013-08-28 0:0:22.120000000000001,78.9474
2013-08-28 0:0:22.879999999999999,78.9474
2013-08-28 0:0:23.640000000000001,77.9221
2013-08-28 0:0:24.41,77.9221
2013-08-28 0:0:25.18,78.9474
2013-08-28 0:0:25.940000000000001,77.9221
2013-08-28 0:0:26.710000000000001,77.9221
2013-08-28 0:0:27.48,77.9221
2013-08-28 0:0:28.25,77.9221
2013-08-28 0:0:29.02,77.9221
2013-08-28 0:0:29.789999999999999,77.9221
2013-08-28 0:0:30.559999999999999,77.9221
2013-08-28 0:0:31.329999999999998,76.9231
2013-08-28 0:0:32.109999999999999,77.9221
2013-08-28 0:0:32.880000000000003,77.9221
2013-08-28 0:0:33.649999999999999,77.9221
2013-08-28 0:0:34.420000000000002,76.9231
2013-08-28 0:0:35.200000000000003,77.9221
2013-08-28 0:0:35.969999999999999,78.9474
2013-08-28 0:0:36.729999999999997,77.9221
2013-08-28 0:0:37.5,77.9221
2013-08-28 0:0:38.270000000000003,78.9474
2013-08-28 0:0:39.030000000000001,77.9221
2013-08-28 0:0:39.799999999999997,77.9221
2013-08-28 0:0:40.57,77.9221
2013-08-28 0:0:41.340000000000003,77.9221
2013-08-28 0:0:42.109999999999999,77.9221
2013-08-28 0:0:42.880000000000003,78.9474
2013-08-28 0:0:43.640000000000001,77.9221
2013-08-28 0:0:44.409999999999997,78.9474
2013-08-28 0:0:45.170000000000002,77.9221
2013-08-28 0:0:45.939999999999998,78.9474
2013-08-28 0:0:46.700000000000003,77.9221
2013-08-28 0:0:47.469999999999999,76.9231
2013-08-28 0:0:48.25,77.9221
2013-08-28 0:0:49.020000000000003,76.9231
2013-08-28 0:0:49.799999999999997,76.9231
2013-08-28 0:0:50.579999999999998,77.9221
2013-08-28 0:0:51.350000000000001,78.9474
2013-08-28 0:0:52.109999999999999,78.9474
2013-08-28 0:0:52.869999999999997,77.9221
2013-08-28 0:0:53.640000000000001,78.9474
2013-08-28 0:0:54.399999999999999,78.9474
2013-08-28 0:0:55.159999999999997,78.9474
2013-08-28 0:0:55.920000000000002,78.9474
2013-08-28 0:0:56.68,77.9221
2013-08-28 0:0:57.450000000000003,77.9221
2013-08-28 0:0:58.219999999999999,78.9474
2013-08-28 0:0:58.979999999999997,78.9474
2013-08-28 0:0:59.740000000000002,80
2013-08-28 0:1:0.49000000000000199,78.9474
2013-08-28 0:1:1.25,80
2013-08-28 0:1:2.0,80
2013-08-28 0:1:2.75,81.0811
2013-08-28 0:1:3.490000000000002,80
2013-08-28 0:1:4.2399999999999949,81.0811
2013-08-28 0:1:4.980000000000004,81.0811
2013-08-28 0:1:5.7199999999999989,81.0811
2013-08-28 0:1:6.4599999999999937,81.0811
2013-08-28 0:1:7.2000000000000028,81.0811
2013-08-28 0:1:7.9399999999999977,81.0811
2013-08-28 0:1:8.6800000000000068,81.0811
2013-08-28 0:1:9.4200000000000017,81.0811
2013-08-28 0:1:10.159999999999997,80
2013-08-28 0:1:10.909999999999997,80
2013-08-28 0:1:11.659999999999997,80
2013-08-28 0:1:12.409999999999997,81.0811
2013-08-28 0:1:13.150000000000006,80
2013-08-28 0:1:13.900000000000006,81.0811
2013-08-28 0:1:14.640000000000001,80
2013-08-28 0:1:15.390000000000001,81.0811
2013-08-28 0:1:16.129999999999995,81.0811
2013-08-28 0:1:16.870000000000005,80
2013-08-28 0:1:17.620000000000005,80
2013-08-28 0:1:18.370000000000005,81.0811
2013-08-28 0:1:19.109999999999999,80
2013-08-28 0:1:19.859999999999999,81.0811
2013-08-28 0:1:20.599999999999994,80
2013-08-28 0:1:21.349999999999994,80
2013-08-28 0:1:22.099999999999994,80
2013-08-28 0:1:22.849999999999994,80
2013-08-28 0:1:23.599999999999994,80
2013-08-28 0:1:24.349999999999994,78.9474
2013-08-28 0:1:25.109999999999999,80
2013-08-28 0:1:25.859999999999999,80
2013-08-28 0:1:26.609999999999999,80
2013-08-28 0:1:27.359999999999999,78.9474
2013-08-28 0:1:28.120000000000005,80
2013-08-28 0:1:28.870000000000005,80
2013-08-28 0:1:29.620000000000005,78.9474
2013-08-28 0:1:30.379999999999995,80
2013-08-28 0:1:31.129999999999995,80
2013-08-28 0:1:31.879999999999995,81.0811
2013-08-28 0:1:32.620000000000005,82.1918
2013-08-28 0:1:33.349999999999994,81.0811
2013-08-28 0:1:34.090000000000003,81.0811
2013-08-28 0:1:34.829999999999998,80
2013-08-28 0:1:35.579999999999998,81.0811
2013-08-28 0:1:36.319999999999993,80
2013-08-28 0:1:37.069999999999993,80
2013-08-28 0:1:37.819999999999993,80
2013-08-28 0:1:38.569999999999993,80
2013-08-28 0:1:39.319999999999993,80
2013-08-28 0:1:40.069999999999993,81.0811
2013-08-28 0:1:40.810000000000002,80
2013-08-28 0:1:41.560000000000002,80
2013-08-28 0:1:42.310000000000002,81.0811
2013-08-28 0:1:43.049999999999997,80
2013-08-28 0:1:43.799999999999997,81.0811
2013-08-28 0:1:44.540000000000006,80
2013-08-28 0:1:45.290000000000006,81.0811
2013-08-28 0:1:46.030000000000001,80
2013-08-28 0:1:46.780000000000001,81.0811
2013-08-28 0:1:47.519999999999996,80
2013-08-28 0:1:48.269999999999996,80
2013-08-28 0:1:49.019999999999996,81.0811
2013-08-28 0:1:49.760000000000005,80
2013-08-28 0:1:50.510000000000005,80
2013-08-28 0:1:51.260000000000005,80
2013-08-28 0:1:52.010000000000005,80
2013-08-28 0:1:52.760000000000005,80
2013-08-28 0:1:53.510000000000005,80
2013-08-28 0:1:54.260000000000005,78.9474
2013-08-28 0:1:55.019999999999996,80
2013-08-28 0:1:55.769999999999996,78.9474
2013-08-28 0:1:56.530000000000001,78.9474
2013-08-28 0:1:57.290000000000006,78.9474
2013-08-28 0:1:58.049999999999997,78.9474
2013-08-28 0:1:58.810000000000002,78.9474
2013-08-28 0:1:59.569999999999993,78.9474
2013-08-28 0:2:0.32999999999999829,78.9474
2013-08-28 0:2:1.0900000000000034,77.9221
2013-08-28 0:2:1.8599999999999994,77.9221
2013-08-28 0:2:2.6299999999999955,76.9231
2013-08-28 0:2:3.4099999999999966,77.9221
2013-08-28 0:2:4.1800000000000068,77.9221
2013-08-28 0:2:4.9500000000000028,76.9231
2013-08-28 0:2:5.730000000000004,78.9474
2013-08-28 0:2:6.4899999999999949,77.9221
2013-08-28 0:2:7.2600000000000051,77.9221
2013-08-28 0:2:8.0300000000000011,78.9474
2013-08-28 0:2:8.789999999999992,78.9474
2013-08-28 0:2:9.5500000000000114,77.9221
2013-08-28 0:2:10.319999999999993,78.9474
2013-08-28 0:2:11.080000000000013,78.9474
2013-08-28 0:2:11.840000000000003,80
2013-08-28 0:2:12.590000000000003,80
2013-08-28 0:2:13.340000000000003,80
2013-08-28 0:2:14.090000000000003,81.0811
2013-08-28 0:2:14.830000000000013,81.0811
2013-08-28 0:2:15.569999999999993,82.1918
2013-08-28 0:2:16.300000000000011,81.0811
2013-08-28 0:2:17.039999999999992,83.3333
2013-08-28 0:2:17.759999999999991,82.1918
2013-08-28 0:2:18.490000000000009,84.507
2013-08-28 0:2:20.610000000000014,85.7143
2013-08-28 0:2:21.310000000000002,86.9565
2013-08-28 0:2:22.0,85.7143
2013-08-28 0:2:22.699999999999989,86.9565
2013-08-28 0:2:23.389999999999986,85.7143
2013-08-28 0:2:24.090000000000003,85.7143
2013-08-28 0:2:24.789999999999992,84.507
2013-08-28 0:2:25.5,84.507
2013-08-28 0:2:26.210000000000008,92.3077
2013-08-28 0:2:27.650000000000006,83.3333
2013-08-28 0:2:28.370000000000005,83.3333
2013-08-28 0:2:29.090000000000003,83.3333
2013-08-28 0:2:29.810000000000002,84.507
2013-08-28 0:2:30.52000000000001,83.3333
2013-08-28 0:2:31.240000000000009,83.3333
2013-08-28 0:2:31.960000000000008,84.507
2013-08-28 0:2:32.669999999999987,84.507
2013-08-28 0:2:33.379999999999995,84.507
2013-08-28 0:2:34.090000000000003,84.507
2013-08-28 0:2:34.800000000000011,84.507
2013-08-28 0:2:35.509999999999991,84.507
2013-08-28 0:2:36.219999999999999,84.507
2013-08-28 0:2:36.930000000000007,84.507
2013-08-28 0:2:37.639999999999986,83.3333
2013-08-28 0:2:38.360000000000014,84.507
2013-08-28 0:2:41.180000000000007,85.7143
2013-08-28 0:2:41.879999999999995,84.507
2013-08-28 0:2:42.590000000000003,85.7143
2013-08-28 0:2:43.289999999999992,84.507
2013-08-28 0:2:44.0,83.3333
2013-08-28 0:2:54.379999999999995,83.3333
2013-08-28 0:2:55.099999999999994,83.3333
2013-08-28 0:2:55.819999999999993,82.1918
2013-08-28 0:2:56.550000000000011,83.3333
2013-08-28 0:2:57.27000000000001,83.3333
2013-08-28 0:2:57.990000000000009,82.1918
2013-08-28 0:2:58.719999999999999,82.1918
2013-08-28 0:2:59.449999999999989,81.0811
2013-08-28 0:3:0.18999999999999773,81.0811
2013-08-28 0:3:0.93000000000000682,82.1918
2013-08-28 0:3:1.6599999999999966,82.1918
2013-08-28 0:3:2.3899999999999864,82.1918
2013-08-28 0:3:3.1200000000000045,82.1918
2013-08-28 0:3:3.8499999999999943,82.1918
2013-08-28 0:3:4.5800000000000125,83.3333
2013-08-28 0:3:5.3000000000000114,83.3333
2013-08-28 0:3:6.0200000000000102,84.507
2013-08-28 0:3:6.7299999999999898,83.3333
2013-08-28 0:3:7.4499999999999886,84.507
2013-08-28 0:3:8.1599999999999966,83.3333
2013-08-28 0:3:8.8799999999999955,83.3333
2013-08-28 0:3:9.5999999999999943,83.3333
2013-08-28 0:3:10.319999999999993,82.1918
2013-08-28 0:3:11.050000000000011,83.3333
2013-08-28 0:3:11.77000000000001,82.1918
2013-08-28 0:3:12.5,81.0811
2013-08-28 0:3:13.240000000000009,81.0811
2013-08-28 0:3:13.97999999999999,82.1918
2013-08-28 0:3:14.710000000000008,81.0811
2013-08-28 0:3:15.449999999999989,82.1918
2013-08-28 0:3:16.180000000000007,80
2013-08-28 0:3:16.930000000000007,78.9474
2013-08-28 0:3:17.689999999999998,80
2013-08-28 0:3:18.439999999999998,80
2013-08-28 0:3:19.189999999999998,80
2013-08-28 0:3:19.939999999999998,82.1918
2013-08-28 0:3:20.669999999999987,81.0811
2013-08-28 0:3:21.409999999999997,83.3333
2013-08-28 0:3:22.129999999999995,82.1918
2013-08-28 0:3:22.860000000000014,81.0811
2013-08-28 0:3:23.599999999999994,81.0811
2013-08-28 0:3:24.340000000000003,80
2013-08-28 0:3:25.090000000000003,78.9474
2013-08-28 0:3:25.849999999999994,78.9474
2013-08-28 0:3:26.610000000000014,77.9221
2013-08-28 0:3:27.379999999999995,77.9221
2013-08-28 0:3:28.150000000000006,76.9231
2013-08-28 0:3:28.930000000000007,77.9221
2013-08-28 0:3:29.699999999999989,77.9221
2013-08-28 0:3:30.469999999999999,77.9221
2013-08-28 0:3:31.240000000000009,75.9494
2013-08-28 0:3:32.030000000000001,76.9231
2013-08-28 0:3:32.810000000000002,75.9494
2013-08-28 0:3:33.599999999999994,75
2013-08-28 0:3:34.400000000000006,75
2013-08-28 0:3:35.199999999999989,74.0741
2013-08-28 0:3:36.009999999999991,74.0741
2013-08-28 0:3:36.819999999999993,73.1707
2013-08-28 0:3:37.639999999999986,74.0741
2013-08-28 0:3:38.449999999999989,75.9494
2013-08-28 0:3:39.240000000000009,75.9494
2013-08-28 0:3:40.030000000000001,77.9221
2013-08-28 0:3:40.800000000000011,77.9221
2013-08-28 0:3:41.569999999999993,77.9221
2013-08-28 0:3:42.340000000000003,78.9474
2013-08-28 0:3:43.099999999999994,76.9231
2013-08-28 0:3:43.879999999999995,78.9474
2013-08-28 0:3:44.639999999999986,78.9474
2013-08-28 0:3:45.400000000000006,78.9474
2013-08-28 0:3:46.159999999999997,78.9474
2013-08-28 0:3:46.919999999999987,78.9474
2013-08-28 0:3:47.680000000000007,78.9474
2013-08-28 0:3:48.439999999999998,78.9474
2013-08-28 0:3:49.199999999999989,78.9474
2013-08-28 0:3:49.960000000000008,77.9221
2013-08-28 0:3:50.72999999999999,76.9231
2013-08-28 0:3:51.509999999999991,75.9494
2013-08-28 0:3:52.300000000000011,76.9231
2013-08-28 0:3:53.080000000000013,75
2013-08-28 0:3:53.879999999999995,75
2013-08-28 0:3:54.680000000000007,73.1707
2013-08-28 0:3:55.5,74.0741
2013-08-28 0:3:56.310000000000002,74.0741
2013-08-28 0:3:57.120000000000005,74.0741
2013-08-28 0:3:57.930000000000007,75
2013-08-28 0:3:58.72999999999999,75.9494
2013-08-28 0:3:59.52000000000001,77.9221
2013-08-28 0:4:0.28999999999999204,77.9221
2013-08-28 0:4:1.0600000000000023,80
2013-08-28 0:4:1.8100000000000023,81.0811
2013-08-28 0:4:2.5500000000000114,81.0811
2013-08-28 0:4:3.289999999999992,83.3333
2013-08-28 0:4:4.0099999999999909,83.3333
2013-08-28 0:4:4.7299999999999898,83.3333
2013-08-28 0:4:5.4499999999999886,84.507
2013-08-28 0:4:6.1599999999999966,84.507
2013-08-28 0:4:6.8700000000000045,84.507
2013-08-28 0:4:7.5800000000000125,84.507
2013-08-28 0:4:8.289999999999992,84.507
2013-08-28 0:4:9.0,84.507
2013-08-28 0:4:9.710000000000008,83.3333
2013-08-28 0:4:10.430000000000007,83.3333
2013-08-28 0:4:11.150000000000006,82.1918
2013-08-28 0:4:11.879999999999995,83.3333
2013-08-28 0:4:12.599999999999994,81.0811
2013-08-28 0:4:13.340000000000003,82.1918
2013-08-28 0:4:14.069999999999993,82.1918
2013-08-28 0:4:14.800000000000011,81.0811
2013-08-28 0:4:15.539999999999992,81.0811
2013-08-28 0:4:16.279999999999973,80
2013-08-28 0:4:17.029999999999973,81.0811
2013-08-28 0:4:17.769999999999982,82.1918
2013-08-28 0:4:18.5,82.1918
2013-08-28 0:4:19.230000000000018,82.1918
2013-08-28 0:4:19.95999999999998,84.507
2013-08-28 0:4:20.670000000000016,83.3333
2013-08-28 0:4:21.389999999999986,84.507
2013-08-28 0:4:22.100000000000023,83.3333
2013-08-28 0:4:22.819999999999993,83.3333
2013-08-28 0:4:23.54000000000002,82.1918
2013-08-28 0:4:24.269999999999982,83.3333
2013-08-28 0:4:24.990000000000009,83.3333
2013-08-28 0:4:25.70999999999998,82.1918
2013-08-28 0:4:26.439999999999998,83.3333
2013-08-28 0:4:27.160000000000025,83.3333
2013-08-28 0:4:27.879999999999995,84.507
2013-08-28 0:4:28.589999999999975,83.3333
2013-08-28 0:4:29.310000000000002,83.3333
2013-08-28 0:4:30.029999999999973,84.507
2013-08-28 0:4:30.740000000000009,82.1918
2013-08-28 0:4:31.470000000000027,81.0811
2013-08-28 0:4:32.20999999999998,81.0811
2013-08-28 0:4:32.949999999999989,81.0811
2013-08-28 0:4:33.689999999999998,81.0811
2013-08-28 0:4:34.430000000000007,82.1918
2013-08-28 0:4:35.160000000000025,81.0811
2013-08-28 0:4:35.899999999999977,82.1918
2013-08-28 0:4:36.629999999999995,81.0811
2013-08-28 0:4:37.370000000000005,82.1918
2013-08-28 0:4:38.100000000000023,85.7143
2013-08-28 0:4:38.800000000000011,80
2013-08-28 0:4:39.550000000000011,77.9221
2013-08-28 0:4:40.319999999999993,76.9231
2013-08-28 0:4:41.100000000000023,80
2013-08-28 0:4:41.850000000000023,78.9474
2013-08-28 0:4:42.610000000000014,80
2013-08-28 0:4:43.360000000000014,82.1918
2013-08-28 0:4:44.089999999999975,83.3333
2013-08-28 0:4:44.810000000000002,83.3333
2013-08-28 0:4:45.529999999999973,84.507
2013-08-28 0:4:46.240000000000009,85.7143
2013-08-28 0:4:46.939999999999998,84.507
2013-08-28 0:4:47.649999999999977,86.9565
2013-08-28 0:4:48.339999999999975,85.7143
2013-08-28 0:4:49.04000000000002,85.7143
2013-08-28 0:4:49.740000000000009,84.507
2013-08-28 0:4:50.449999999999989,84.507
2013-08-28 0:4:51.160000000000025,82.1918
2013-08-28 0:4:51.889999999999986,82.1918
2013-08-28 0:4:52.620000000000005,83.3333
2013-08-28 0:4:53.339999999999975,83.3333
2013-08-28 0:4:54.060000000000002,84.507
2013-08-28 0:4:54.769999999999982,85.7143
2013-08-28 0:4:55.470000000000027,84.507
2013-08-28 0:4:56.180000000000007,84.507
2013-08-28 0:4:56.889999999999986,84.507
2013-08-28 0:4:57.600000000000023,85.7143
2013-08-28 0:4:58.300000000000011,85.7143
2013-08-28 0:4:59.0,84.507
2013-08-28 0:4:59.70999999999998,83.3333
2013-08-28 0:5:0.43000000000000682,84.507
2013-08-28 0:5:1.1399999999999864,83.3333
2013-08-28 0:5:1.8600000000000136,83.3333
2013-08-28 0:5:2.5799999999999841,83.3333
2013-08-28 0:5:3.3000000000000114,83.3333
2013-08-28 0:5:4.0199999999999818,82.1918
2013-08-28 0:5:4.75,83.3333
2013-08-28 0:5:5.4700000000000273,83.3333
2013-08-28 0:5:6.1899999999999977,83.3333
2013-08-28 0:5:6.910000000000025,83.3333
2013-08-28 0:5:7.6299999999999955,83.3333
2013-08-28 0:5:8.3500000000000227,83.3333
2013-08-28 0:5:9.0699999999999932,83.3333
2013-08-28 0:5:9.7900000000000205,85.7143
2013-08-28 0:5:10.490000000000009,84.507
2013-08-28 0:5:11.199999999999989,84.507
2013-08-28 0:5:11.910000000000025,85.7143
2013-08-28 0:5:12.610000000000014,85.7143
2013-08-28 0:5:13.310000000000002,86.9565
2013-08-28 0:5:14.0,85.7143
2013-08-28 0:5:14.699999999999989,86.9565
2013-08-28 0:5:15.389999999999986,86.9565
2013-08-28 0:5:16.079999999999984,88.2353
2013-08-28 0:5:16.759999999999991,88.2353
2013-08-28 0:5:17.439999999999998,88.2353
2013-08-28 0:5:18.120000000000005,88.2353
2013-08-28 0:5:18.800000000000011,89.5522
2013-08-28 0:5:19.470000000000027,88.2353
2013-08-28 0:5:20.149999999999977,88.2353
2013-08-28 0:5:20.829999999999984,88.2353
2013-08-28 0:5:21.509999999999991,86.9565
2013-08-28 0:5:22.199999999999989,86.9565
2013-08-28 0:5:22.889999999999986,85.7143
2013-08-28 0:5:23.589999999999975,86.9565
2013-08-28 0:5:24.279999999999973,86.9565
2013-08-28 0:5:24.970000000000027,85.7143
2013-08-28 0:5:25.670000000000016,85.7143
2013-08-28 0:5:26.370000000000005,85.7143
2013-08-28 0:5:27.069999999999993,85.7143
2013-08-28 0:5:27.769999999999982,85.7143
2013-08-28 0:5:28.470000000000027,86.9565
2013-08-28 0:5:29.160000000000025,85.7143
2013-08-28 0:5:29.860000000000014,86.9565
2013-08-28 0:5:30.550000000000011,86.9565
2013-08-28 0:5:31.240000000000009,86.9565
2013-08-28 0:5:34.029999999999973,83.3333
2013-08-28 0:5:34.75,83.3333
2013-08-28 0:5:35.470000000000027,82.1918
2013-08-28 0:5:36.199999999999989,82.1918
2013-08-28 0:5:36.930000000000007,81.0811
2013-08-28 0:5:37.670000000000016,82.1918
2013-08-28 0:5:38.399999999999977,81.0811
2013-08-28 0:5:39.139999999999986,82.1918
2013-08-28 0:5:39.870000000000005,83.3333
2013-08-28 0:5:40.589999999999975,83.3333
2013-08-28 0:5:41.310000000000002,82.1918
2013-08-28 0:5:42.04000000000002,83.3333
2013-08-28 0:5:42.759999999999991,82.1918
2013-08-28 0:5:43.490000000000009,82.1918
2013-08-28 0:5:44.220000000000027,82.1918
2013-08-28 0:5:44.949999999999989,82.1918
2013-08-28 0:5:45.680000000000007,81.0811
2013-08-28 0:5:46.420000000000016,81.0811
2013-08-28 0:5:47.160000000000025,81.0811
2013-08-28 0:5:47.899999999999977,83.3333
2013-08-28 0:5:48.620000000000005,83.3333
2013-08-28 0:5:49.339999999999975,85.7143
2013-08-28 0:5:50.04000000000002,85.7143
2013-08-28 0:5:50.740000000000009,85.7143
2013-08-28 0:5:51.439999999999998,86.9565
2013-08-28 0:5:52.129999999999995,86.9565
2013-08-28 0:5:52.819999999999993,85.7143
2013-08-28 0:5:53.519999999999982,86.9565
2013-08-28 0:5:54.20999999999998,86.9565
2013-08-28 0:5:54.899999999999977,86.9565
2013-08-28 0:5:55.589999999999975,86.9565
2013-08-28 0:5:56.279999999999973,86.9565
2013-08-28 0:5:56.970000000000027,86.9565
2013-08-28 0:5:59.730000000000018,85.7143
2013-08-28 0:6:0.43000000000000682,86.9565
2013-08-28 0:6:1.1200000000000045,86.9565
2013-08-28 0:6:1.8100000000000023,86.9565
2013-08-28 0:6:2.5,86.9565
2013-08-28 0:6:3.1899999999999977,86.9565
2013-08-28 0:6:3.8799999999999955,88.2353
2013-08-28 0:6:4.5600000000000023,86.9565
2013-08-28 0:6:5.25,86.9565
2013-08-28 0:6:5.9399999999999977,85.7143
2013-08-28 0:6:6.6399999999999864,86.9565
2013-08-28 0:6:7.3299999999999841,86.9565
2013-08-28 0:6:8.0199999999999818,88.2353
2013-08-28 0:6:8.6999999999999886,88.2353
2013-08-28 0:6:9.3799999999999955,88.2353
2013-08-28 0:6:10.060000000000002,88.2353
2013-08-28 0:6:10.740000000000009,88.2353
2013-08-28 0:6:11.420000000000016,88.2353
2013-08-28 0:6:12.100000000000023,86.9565
2013-08-28 0:6:12.79000000000002,88.2353
2013-08-28 0:6:13.470000000000027,86.9565
2013-08-28 0:6:18.990000000000009,85.7143
2013-08-28 0:6:19.689999999999998,84.507
2013-08-28 0:6:20.399999999999977,85.7143
2013-08-28 0:6:21.100000000000023,84.507
2013-08-28 0:6:21.810000000000002,83.3333
2013-08-28 0:6:22.529999999999973,84.507
2013-08-28 0:6:23.240000000000009,84.507
2013-08-28 0:6:23.949999999999989,84.507
2013-08-28 0:6:24.660000000000025,84.507
2013-08-28 0:6:25.370000000000005,85.7143
2013-08-28 0:6:26.069999999999993,86.9565
2013-08-28 0:6:26.759999999999991,85.7143
2013-08-28 0:6:27.45999999999998,86.9565
2013-08-28 0:6:28.149999999999977,86.9565
2013-08-28 0:6:28.839999999999975,88.2353
2013-08-28 0:6:29.519999999999982,85.7143
2013-08-28 0:6:30.220000000000027,85.7143
2013-08-28 0:6:30.920000000000016,85.7143
2013-08-28 0:6:31.620000000000005,84.507
2013-08-28 0:6:32.329999999999984,84.507
2013-08-28 0:6:33.04000000000002,84.507
2013-08-28 0:6:33.75,84.507
2013-08-28 0:6:34.45999999999998,85.7143
2013-08-28 0:6:35.160000000000025,84.507
2013-08-28 0:6:35.870000000000005,86.9565
2013-08-28 0:6:36.560000000000002,85.7143
2013-08-28 0:6:37.259999999999991,85.7143
2013-08-28 0:6:37.95999999999998,84.507
2013-08-28 0:6:38.670000000000016,85.7143
2013-08-28 0:6:39.370000000000005,85.7143
2013-08-28 0:6:40.069999999999993,85.7143
2013-08-28 0:6:40.769999999999982,84.507
2013-08-28 0:6:41.480000000000018,85.7143
2013-08-28 0:6:42.180000000000007,84.507
2013-08-28 0:6:42.889999999999986,85.7143
2013-08-28 0:6:43.589999999999975,84.507
2013-08-28 0:6:44.300000000000011,86.9565
2013-08-28 0:6:44.990000000000009,84.507
2013-08-28 0:6:45.699999999999989,84.507
2013-08-28 0:6:50.689999999999998,84.507
2013-08-28 0:6:51.399999999999977,82.1918
2013-08-28 0:6:52.129999999999995,82.1918
2013-08-28 0:6:52.860000000000014,81.0811
2013-08-28 0:6:53.600000000000023,80
2013-08-28 0:6:54.350000000000023,78.9474
2013-08-28 0:6:55.110000000000014,78.9474
2013-08-28 0:6:55.870000000000005,77.9221
2013-08-28 0:6:56.639999999999986,76.9231
2013-08-28 0:6:57.420000000000016,75.9494
2013-08-28 0:6:58.20999999999998,77.9221
2013-08-28 0:6:58.980000000000018,77.9221
2013-08-28 0:6:59.75,78.9474
2013-08-28 0:7:0.50999999999999091,78.9474
2013-08-28 0:7:1.2699999999999818,80
2013-08-28 0:7:2.0199999999999818,81.0811
2013-08-28 0:7:2.7599999999999909,82.1918
2013-08-28 0:7:3.4900000000000091,83.3333
2013-08-28 0:7:4.2099999999999795,83.3333
2013-08-28 0:7:4.9300000000000068,84.507
2013-08-28 0:7:5.6399999999999864,83.3333
2013-08-28 0:7:6.3600000000000136,83.3333
2013-08-28 0:7:7.0799999999999841,83.3333
2013-08-28 0:7:7.8000000000000114,83.3333
2013-08-28 0:7:8.5199999999999818,83.3333
2013-08-28 0:7:9.2400000000000091,85.7143
2013-08-28 0:7:9.9399999999999977,84.507
2013-08-28 0:7:10.649999999999977,84.507
2013-08-28 0:7:11.360000000000014,84.507
2013-08-28 0:7:12.069999999999993,84.507
2013-08-28 0:7:12.779999999999973,85.7143
2013-08-28 0:7:13.480000000000018,84.507
2013-08-28 0:7:14.189999999999998,84.507
2013-08-28 0:7:14.899999999999977,84.507
2013-08-28 0:7:15.610000000000014,85.7143
2013-08-28 0:7:16.310000000000002,83.3333
2013-08-28 0:7:17.029999999999973,84.507
2013-08-28 0:7:17.740000000000009,84.507
2013-08-28 0:7:18.449999999999989,84.507
2013-08-28 0:7:19.160000000000025,83.3333
2013-08-28 0:7:19.879999999999995,83.3333
2013-08-28 0:7:20.600000000000023,82.1918
2013-08-28 0:7:21.329999999999984,81.0811
2013-08-28 0:7:22.069999999999993,82.1918
2013-08-28 0:7:22.800000000000011,82.1918
2013-08-28 0:7:23.529999999999973,83.3333
2013-08-28 0:7:24.25,83.3333
2013-08-28 0:7:24.970000000000027,83.3333
2013-08-28 0:7:25.689999999999998,83.3333
2013-08-28 0:7:26.410000000000025,83.3333
2013-08-28 0:7:27.129999999999995,82.1918
2013-08-28 0:7:27.860000000000014,83.3333
2013-08-28 0:7:28.579999999999984,82.1918
2013-08-28 0:7:29.310000000000002,83.3333
2013-08-28 0:7:30.029999999999973,82.1918
2013-08-28 0:7:30.759999999999991,82.1918
2013-08-28 0:7:31.490000000000009,82.1918
2013-08-28 0:7:32.220000000000027,82.1918
2013-08-28 0:7:32.949999999999989,81.0811
2013-08-28 0:7:33.689999999999998,81.0811
2013-08-28 0:7:34.430000000000007,82.1918
2013-08-28 0:7:35.160000000000025,83.3333
2013-08-28 0:7:35.879999999999995,83.3333
2013-08-28 0:7:36.600000000000023,84.507
2013-08-28 0:7:37.310000000000002,84.507
2013-08-28 0:7:38.019999999999982,86.9565
2013-08-28 0:7:38.70999999999998,85.7143
2013-08-28 0:7:39.410000000000025,84.507
2013-08-28 0:7:40.120000000000005,84.507
2013-08-28 0:7:40.829999999999984,84.507
2013-08-28 0:7:41.54000000000002,84.507
2013-08-28 0:7:42.25,83.3333
2013-08-28 0:7:42.970000000000027,84.507
2013-08-28 0:7:43.680000000000007,83.3333
2013-08-28 0:7:44.399999999999977,83.3333
2013-08-28 0:7:45.120000000000005,82.1918
2013-08-28 0:7:45.850000000000023,82.1918
2013-08-28 0:7:46.579999999999984,82.1918
2013-08-28 0:7:47.310000000000002,82.1918
2013-08-28 0:7:48.04000000000002,82.1918
2013-08-28 0:7:48.769999999999982,83.3333
2013-08-28 0:7:49.490000000000009,83.3333
2013-08-28 0:7:50.20999999999998,82.1918
2013-08-28 0:7:50.939999999999998,84.507
2013-08-28 0:7:51.649999999999977,83.3333
2013-08-28 0:7:52.370000000000005,83.3333
2013-08-28 0:7:53.089999999999975,83.3333
2013-08-28 0:7:53.810000000000002,84.507
2013-08-28 0:7:54.519999999999982,83.3333
2013-08-28 0:7:55.240000000000009,85.7143
2013-08-28 0:7:55.939999999999998,84.507
2013-08-28 0:7:56.649999999999977,84.507
2013-08-28 0:7:57.360000000000014,84.507
2013-08-28 0:7:58.069999999999993,85.7143
2013-08-28 0:7:58.769999999999982,83.3333
2013-08-28 0:7:59.490000000000009,84.507
2013-08-28 0:8:0.19999999999998863,84.507
2013-08-28 0:8:0.91000000000002501,83.3333
2013-08-28 0:8:1.6299999999999955,84.507
2013-08-28 0:8:2.339999999999975,84.507
2013-08-28 0:8:3.0500000000000114,84.507
2013-08-28 0:8:3.7599999999999909,84.507
2013-08-28 0:8:4.4700000000000273,84.507
2013-08-28 0:8:5.1800000000000068,84.507
2013-08-28 0:8:5.8899999999999864,82.1918
2013-08-28 0:8:6.6200000000000045,82.1918
2013-08-28 0:8:7.3500000000000227,82.1918
2013-08-28 0:8:8.0799999999999841,83.3333
2013-08-28 0:8:8.8000000000000114,84.507
2013-08-28 0:8:9.5099999999999909,84.507
2013-08-28 0:8:10.220000000000027,85.7143
2013-08-28 0:8:10.920000000000016,85.7143
2013-08-28 0:8:11.620000000000005,84.507
2013-08-28 0:8:12.329999999999984,84.507
2013-08-28 0:8:13.04000000000002,83.3333
2013-08-28 0:8:13.759999999999991,84.507
2013-08-28 0:8:14.470000000000027,84.507
2013-08-28 0:8:15.180000000000007,83.3333
2013-08-28 0:8:15.899999999999977,84.507
2013-08-28 0:8:16.610000000000014,85.7143
2013-08-28 0:8:17.310000000000002,84.507
2013-08-28 0:8:18.019999999999982,84.507
2013-08-28 0:8:18.730000000000018,84.507
2013-08-28 0:8:19.439999999999998,84.507
2013-08-28 0:8:20.149999999999977,84.507
2013-08-28 0:8:20.860000000000014,83.3333
2013-08-28 0:8:21.579999999999984,84.507
2013-08-28 0:8:22.29000000000002,83.3333
2013-08-28 0:8:23.009999999999991,82.1918
2013-08-28 0:8:23.740000000000009,83.3333
2013-08-28 0:8:24.45999999999998,82.1918
2013-08-28 0:8:25.189999999999998,82.1918
2013-08-28 0:8:25.920000000000016,82.1918
2013-08-28 0:8:26.649999999999977,82.1918
2013-08-28 0:8:27.379999999999995,83.3333
2013-08-28 0:8:28.100000000000023,83.3333
2013-08-28 0:8:28.819999999999993,83.3333
2013-08-28 0:8:29.54000000000002,83.3333
2013-08-28 0:8:30.259999999999991,83.3333
2013-08-28 0:8:30.980000000000018,84.507
2013-08-28 0:8:31.689999999999998,83.3333
2013-08-28 0:8:32.409999999999968,83.3333
2013-08-28 0:8:33.129999999999995,83.3333
2013-08-28 0:8:33.850000000000023,83.3333
2013-08-28 0:8:34.57000000000005,83.3333
2013-08-28 0:8:35.289999999999964,82.1918
2013-08-28 0:8:36.019999999999982,82.1918
2013-08-28 0:8:36.75,82.1918
2013-08-28 0:8:37.480000000000018,81.0811
2013-08-28 0:8:38.220000000000027,80
2013-08-28 0:8:38.970000000000027,80
2013-08-28 0:8:39.720000000000027,78.9474
2013-08-28 0:8:40.480000000000018,80
2013-08-28 0:8:45.529999999999973,85.7143
2013-08-28 0:8:46.230000000000018,85.7143
2013-08-28 0:8:49.039999999999964,85.7143
2013-08-28 0:8:51.769999999999982,90.9091
2013-08-28 0:8:52.42999999999995,90.9091
2013-08-28 0:8:53.090000000000032,89.5522
2013-08-28 0:8:53.759999999999991,90.9091
2013-08-28 0:8:54.419999999999959,90.9091
2013-08-28 0:8:55.080000000000041,89.5522
2013-08-28 0:8:55.75,88.2353
2013-08-28 0:8:56.42999999999995,88.2353
2013-08-28 0:9:0.51999999999998181,89.5522
2013-08-28 0:9:1.1900000000000546,88.2353
2013-08-28 0:9:1.8700000000000045,89.5522
2013-08-28 0:9:2.5399999999999636,89.5522
2013-08-28 0:9:3.2100000000000364,88.2353
2013-08-28 0:9:3.8899999999999864,88.2353
2013-08-28 0:9:4.57000000000005,86.9565
2013-08-28 0:9:5.2599999999999909,88.2353
2013-08-28 0:9:5.9400000000000546,86.9565
2013-08-28 0:9:8.67999999999995,88.2353
2013-08-28 0:9:9.3600000000000136,86.9565
2013-08-28 0:9:10.049999999999955,89.5522
2013-08-28 0:9:10.720000000000027,88.2353
2013-08-28 0:9:11.399999999999977,88.2353
2013-08-28 0:9:12.080000000000041,88.2353
2013-08-28 0:9:12.759999999999991,86.9565
2013-08-28 0:9:13.450000000000045,85.7143
2013-08-28 0:9:14.149999999999977,85.7143
2013-08-28 0:9:14.850000000000023,84.507
2013-08-28 0:9:15.559999999999945,82.1918
2013-08-28 0:9:16.289999999999964,83.3333
2013-08-28 0:9:17.009999999999991,89.5522
2013-08-28 0:9:18.470000000000027,81.0811
2013-08-28 0:9:19.210000000000036,80
2013-08-28 0:9:19.960000000000036,81.0811
2013-08-28 0:9:20.700000000000045,82.1918
2013-08-28 0:9:21.42999999999995,81.0811
2013-08-28 0:9:22.169999999999959,81.0811
2013-08-28 0:9:22.909999999999968,81.0811
2013-08-28 0:9:23.649999999999977,81.0811
2013-08-28 0:9:24.389999999999986,81.0811
2013-08-28 0:9:25.129999999999995,81.0811
2013-08-28 0:9:25.870000000000005,82.1918
2013-08-28 0:9:26.600000000000023,81.0811
2013-08-28 0:9:27.340000000000032,82.1918
2013-08-28 0:9:28.07000000000005,80
2013-08-28 0:9:28.82000000000005,81.0811
2013-08-28 0:9:29.559999999999945,81.0811
2013-08-28 0:9:30.299999999999955,81.0811
2013-08-28 0:9:31.039999999999964,81.0811
2013-08-28 0:9:31.779999999999973,80
2013-08-28 0:9:32.529999999999973,81.0811
2013-08-28 0:9:33.269999999999982,80
2013-08-28 0:9:34.019999999999982,81.0811
2013-08-28 0:9:34.759999999999991,80
2013-08-28 0:9:35.509999999999991,78.9474
2013-08-28 0:9:36.269999999999982,80
2013-08-28 0:9:37.019999999999982,78.9474
2013-08-28 0:9:37.779999999999973,78.9474
2013-08-28 0:9:38.539999999999964,78.9474
2013-08-28 0:9:39.299999999999955,77.9221
2013-08-28 0:9:40.07000000000005,78.9474
2013-08-28 0:9:40.830000000000041,78.9474
2013-08-28 0:9:41.590000000000032,78.9474
2013-08-28 0:9:42.350000000000023,80
2013-08-28 0:9:43.100000000000023,78.9474
2013-08-28 0:9:43.860000000000014,77.9221
2013-08-28 0:9:44.629999999999995,77.9221
2013-08-28 0:9:45.399999999999977,78.9474
2013-08-28 0:9:46.159999999999968,78.9474
2013-08-28 0:9:46.919999999999959,78.9474
2013-08-28 0:9:47.67999999999995,78.9474
2013-08-28 0:9:48.440000000000055,78.9474
2013-08-28 0:9:49.200000000000045,78.9474
2013-08-28 0:9:49.960000000000036,80
2013-08-28 0:9:50.710000000000036,80
2013-08-28 0:9:51.460000000000036,80
2013-08-28 0:9:52.210000000000036,82.1918
2013-08-28 0:9:52.940000000000055,82.1918
2013-08-28 0:9:53.669999999999959,83.3333
2013-08-28 0:9:54.389999999999986,83.3333
2013-08-28 0:9:55.110000000000014,85.7143
2013-08-28 0:9:55.809999999999945,85.7143
2013-08-28 0:9:56.509999999999991,84.507
2013-08-28 0:9:57.220000000000027,85.7143
2013-08-28 0:9:57.919999999999959,86.9565
2013-08-28 0:9:58.610000000000014,85.7143
2013-08-28 0:9:59.309999999999945,85.7143
2013-08-28 0:10:0.0099999999999909051,85.7143
2013-08-28 0:10:0.71000000000003638,85.7143
2013-08-28 0:10:1.4099999999999682,84.507
2013-08-28 0:10:2.1200000000000045,83.3333
2013-08-28 0:10:2.8400000000000318,82.1918
2013-08-28 0:10:3.57000000000005,81.0811
2013-08-28 0:10:4.3099999999999454,81.0811
2013-08-28 0:10:5.0499999999999545,81.0811
2013-08-28 0:10:5.7899999999999636,80
2013-08-28 0:10:6.5399999999999636,82.1918
2013-08-28 0:10:7.2699999999999818,82.1918
2013-08-28 0:10:8.0,83.3333
2013-08-28 0:10:8.7200000000000273,84.507
2013-08-28 0:10:9.42999999999995,82.1918
2013-08-28 0:10:10.159999999999968,82.1918
2013-08-28 0:10:10.889999999999986,81.0811
2013-08-28 0:10:11.629999999999995,81.0811
2013-08-28 0:10:12.370000000000005,80
2013-08-28 0:10:13.120000000000005,80
2013-08-28 0:10:13.870000000000005,78.9474
2013-08-28 0:10:14.629999999999995,78.9474
2013-08-28 0:10:15.389999999999986,80
2013-08-28 0:10:16.139999999999986,80
2013-08-28 0:10:16.889999999999986,81.0811
2013-08-28 0:10:17.629999999999995,80
2013-08-28 0:10:18.379999999999995,81.0811
2013-08-28 0:10:19.120000000000005,81.0811
2013-08-28 0:10:19.860000000000014,82.1918
2013-08-28 0:10:20.590000000000032,82.1918
2013-08-28 0:10:21.32000000000005,81.0811
2013-08-28 0:10:22.059999999999945,82.1918
2013-08-28 0:10:22.789999999999964,81.0811
2013-08-28 0:10:23.529999999999973,80
2013-08-28 0:10:24.279999999999973,80
2013-08-28 0:10:25.029999999999973,80
2013-08-28 0:10:25.779999999999973,80
2013-08-28 0:10:26.529999999999973,77.9221
2013-08-28 0:10:27.299999999999955,78.9474
2013-08-28 0:10:28.059999999999945,78.9474
2013-08-28 0:10:28.82000000000005,78.9474
2013-08-28 0:10:29.580000000000041,78.9474
2013-08-28 0:10:30.340000000000032,80
2013-08-28 0:10:31.090000000000032,81.0811
2013-08-28 0:10:31.830000000000041,82.1918
2013-08-28 0:10:32.559999999999945,80
2013-08-28 0:10:33.309999999999945,80
2013-08-28 0:10:34.059999999999945,77.9221
2013-08-28 0:10:34.830000000000041,77.9221
2013-08-28 0:10:35.600000000000023,78.9474
2013-08-28 0:10:36.360000000000014,77.9221
2013-08-28 0:10:37.129999999999995,80
2013-08-28 0:10:37.879999999999995,78.9474
2013-08-28 0:10:38.639999999999986,80
2013-08-28 0:10:39.389999999999986,80
2013-08-28 0:10:40.139999999999986,80
2013-08-28 0:10:40.889999999999986,78.9474
2013-08-28 0:10:41.649999999999977,80
2013-08-28 0:10:42.399999999999977,80
2013-08-28 0:10:43.149999999999977,78.9474
2013-08-28 0:10:43.909999999999968,78.9474
2013-08-28 0:10:44.669999999999959,80
2013-08-28 0:10:45.419999999999959,78.9474
2013-08-28 0:10:46.17999999999995,78.9474
2013-08-28 0:10:46.940000000000055,78.9474
2013-08-28 0:10:47.700000000000045,78.9474
2013-08-28 0:10:48.460000000000036,80
2013-08-28 0:10:49.210000000000036,80
2013-08-28 0:10:49.960000000000036,80
2013-08-28 0:10:50.710000000000036,81.0811
2013-08-28 0:10:51.450000000000045,80
2013-08-28 0:10:52.200000000000045,81.0811
2013-08-28 0:10:52.940000000000055,80
2013-08-28 0:10:53.690000000000055,80
2013-08-28 0:10:54.440000000000055,81.0811
2013-08-28 0:10:55.17999999999995,82.1918
2013-08-28 0:10:55.909999999999968,80
2013-08-28 0:10:56.659999999999968,81.0811
2013-08-28 0:10:57.399999999999977,82.1918
2013-08-28 0:10:58.129999999999995,81.0811
2013-08-28 0:10:58.870000000000005,81.0811
2013-08-28 0:10:59.610000000000014,81.0811
2013-08-28 0:11:0.35000000000002274,81.0811
2013-08-28 0:11:1.0900000000000318,81.0811
2013-08-28 0:11:1.8300000000000409,81.0811
2013-08-28 0:11:2.57000000000005,81.0811
2013-08-28 0:11:3.3099999999999454,81.0811
2013-08-28 0:11:4.0499999999999545,81.0811
2013-08-28 0:11:4.7899999999999636,81.0811
2013-08-28 0:11:5.5299999999999727,81.0811
2013-08-28 0:11:6.2699999999999818,82.1918
2013-08-28 0:11:7.0,81.0811
2013-08-28 0:11:7.7400000000000091,80
2013-08-28 0:11:8.4900000000000091,81.0811
2013-08-28 0:11:9.2300000000000182,82.1918
2013-08-28 0:11:9.9600000000000364,81.0811
2013-08-28 0:11:10.700000000000045,80
2013-08-28 0:11:11.450000000000045,81.0811
2013-08-28 0:11:12.190000000000055,81.0811
2013-08-28 0:11:12.92999999999995,82.1918
2013-08-28 0:11:13.659999999999968,83.3333
2013-08-28 0:11:14.379999999999995,84.507
2013-08-28 0:11:15.090000000000032,84.507
2013-08-28 0:11:15.799999999999955,83.3333
2013-08-28 0:11:16.519999999999982,82.1918
2013-08-28 0:11:17.25,81.0811
2013-08-28 0:11:17.990000000000009,80
2013-08-28 0:11:18.740000000000009,80
2013-08-28 0:11:19.490000000000009,78.9474
2013-08-28 0:11:20.25,78.9474
2013-08-28 0:11:21.009999999999991,78.9474
2013-08-28 0:11:21.769999999999982,78.9474
2013-08-28 0:11:22.529999999999973,80
2013-08-28 0:11:23.279999999999973,78.9474
2013-08-28 0:11:24.039999999999964,78.9474
2013-08-28 0:11:24.799999999999955,77.9221
2013-08-28 0:11:25.57000000000005,76.9231
2013-08-28 0:11:26.350000000000023,75
2013-08-28 0:11:27.149999999999977,72.2892
2013-08-28 0:11:27.980000000000018,68.1818
2013-08-28 0:11:28.860000000000014,67.4157
2013-08-28 0:11:29.75,67.4157
2013-08-28 0:11:30.639999999999986,68.9655
2013-08-28 0:11:31.509999999999991,71.4286
2013-08-28 0:11:32.350000000000023,72.2892
2013-08-28 0:11:33.17999999999995,72.2892
2013-08-28 0:11:34.009999999999991,73.1707
2013-08-28 0:11:34.830000000000041,75
2013-08-28 0:11:35.629999999999995,75
2013-08-28 0:11:36.42999999999995,75.9494
2013-08-28 0:11:37.220000000000027,76.9231
2013-08-28 0:11:38.0,76.9231
2013-08-28 0:11:38.779999999999973,77.9221
2013-08-28 0:11:39.549999999999955,76.9231
2013-08-28 0:11:40.330000000000041,77.9221
2013-08-28 0:11:41.100000000000023,77.9221
2013-08-28 0:11:41.870000000000005,77.9221
2013-08-28 0:11:42.639999999999986,78.9474
2013-08-28 0:11:43.399999999999977,77.9221
2013-08-28 0:11:44.169999999999959,77.9221
2013-08-28 0:11:44.940000000000055,76.9231
2013-08-28 0:11:45.720000000000027,76.9231
2013-08-28 0:11:46.5,76.9231
2013-08-28 0:11:47.279999999999973,75.9494
2013-08-28 0:11:48.07000000000005,74.0741
2013-08-28 0:11:48.879999999999995,75
2013-08-28 0:11:49.67999999999995,75.9494
2013-08-28 0:11:50.470000000000027,76.9231
2013-08-28 0:11:51.25,76.9231
2013-08-28 0:11:52.029999999999973,78.9474
2013-08-28 0:11:52.789999999999964,80
2013-08-28 0:11:53.539999999999964,81.0811
2013-08-28 0:11:54.279999999999973,82.1918
2013-08-28 0:11:55.009999999999991,83.3333
2013-08-28 0:11:55.730000000000018,82.1918
2013-08-28 0:11:56.460000000000036,82.1918
2013-08-28 0:11:57.190000000000055,81.0811
2013-08-28 0:11:57.92999999999995,80
2013-08-28 0:11:58.67999999999995,81.0811
2013-08-28 0:11:59.419999999999959,80
2013-08-28 0:12:0.16999999999995907,81.0811
2013-08-28 0:12:0.90999999999996817,78.9474
2013-08-28 0:12:1.6699999999999591,78.9474
2013-08-28 0:12:2.42999999999995,78.9474
2013-08-28 0:12:3.1900000000000546,78.9474
2013-08-28 0:12:3.9500000000000455,78.9474
2013-08-28 0:12:4.7100000000000364,77.9221
2013-08-28 0:12:5.4800000000000182,77.9221
2013-08-28 0:12:6.25,78.9474
2013-08-28 0:12:7.0099999999999909,80
2013-08-28 0:12:7.7599999999999909,80
2013-08-28 0:12:8.5099999999999909,76.9231
2013-08-28 0:12:9.2899999999999636,77.9221
2013-08-28 0:12:10.059999999999945,77.9221
2013-08-28 0:12:10.830000000000041,78.9474
2013-08-28 0:12:11.590000000000032,81.0811
2013-08-28 0:12:12.330000000000041,81.0811
2013-08-28 0:12:13.07000000000005,81.0811
2013-08-28 0:12:13.809999999999945,80
2013-08-28 0:12:14.559999999999945,80
2013-08-28 0:12:15.309999999999945,81.0811
2013-08-28 0:12:16.049999999999955,82.1918
2013-08-28 0:12:16.779999999999973,82.1918
2013-08-28 0:12:17.509999999999991,83.3333
2013-08-28 0:12:18.230000000000018,83.3333
2013-08-28 0:12:18.950000000000045,78.9474
2013-08-28 0:12:19.710000000000036,81.0811
2013-08-28 0:12:20.450000000000045,81.0811
2013-08-28 0:12:21.190000000000055,82.1918
2013-08-28 0:12:21.919999999999959,82.1918
2013-08-28 0:12:22.649999999999977,82.1918
2013-08-28 0:12:23.379999999999995,83.3333
2013-08-28 0:12:24.100000000000023,83.3333
2013-08-28 0:12:24.82000000000005,83.3333
2013-08-28 0:12:25.539999999999964,83.3333
2013-08-28 0:12:26.259999999999991,83.3333
2013-08-28 0:12:26.980000000000018,83.3333
2013-08-28 0:12:27.700000000000045,84.507
2013-08-28 0:12:28.409999999999968,83.3333
2013-08-28 0:12:29.129999999999995,83.3333
2013-08-28 0:12:29.850000000000023,82.1918
2013-08-28 0:12:30.580000000000041,82.1918
2013-08-28 0:12:31.309999999999945,83.3333
2013-08-28 0:12:32.029999999999973,83.3333
2013-08-28 0:12:32.75,83.3333
2013-08-28 0:12:33.470000000000027,84.507
2013-08-28 0:12:34.17999999999995,85.7143
2013-08-28 0:12:34.879999999999995,86.9565
2013-08-28 0:12:35.57000000000005,86.9565
2013-08-28 0:12:36.259999999999991,86.9565
2013-08-28 0:12:36.950000000000045,85.7143
2013-08-28 0:12:37.649999999999977,85.7143
2013-08-28 0:12:38.350000000000023,85.7143
2013-08-28 0:12:39.049999999999955,84.507
2013-08-28 0:12:39.759999999999991,85.7143
2013-08-28 0:12:40.460000000000036,84.507
2013-08-28 0:12:41.169999999999959,83.3333
2013-08-28 0:12:41.889999999999986,84.507
2013-08-28 0:12:42.600000000000023,84.507
2013-08-28 0:12:43.309999999999945,83.3333
2013-08-28 0:12:44.029999999999973,83.3333
2013-08-28 0:12:44.75,84.507
2013-08-28 0:12:45.460000000000036,84.507
2013-08-28 0:12:46.169999999999959,84.507
2013-08-28 0:12:46.879999999999995,84.507
2013-08-28 0:12:47.590000000000032,85.7143
2013-08-28 0:12:48.289999999999964,84.507
2013-08-28 0:12:49.0,85.7143
2013-08-28 0:12:49.700000000000045,85.7143
2013-08-28 0:12:50.399999999999977,84.507
2013-08-28 0:12:51.110000000000014,86.9565
2013-08-28 0:12:51.799999999999955,85.7143
2013-08-28 0:12:52.5,84.507
2013-08-28 0:12:53.210000000000036,86.9565
2013-08-28 0:12:53.899999999999977,85.7143
2013-08-28 0:12:54.600000000000023,86.9565
2013-08-28 0:12:55.289999999999964,85.7143
2013-08-28 0:12:55.990000000000009,83.3333
2013-08-28 0:12:56.710000000000036,82.1918
2013-08-28 0:12:57.440000000000055,81.0811
2013-08-28 0:12:58.17999999999995,81.0811
2013-08-28 0:12:58.919999999999959,80
2013-08-28 0:12:59.669999999999959,81.0811
2013-08-28 0:13:0.40999999999996817,80
2013-08-28 0:13:1.1599999999999682,81.0811
2013-08-28 0:13:1.8999999999999773,82.1918
2013-08-28 0:13:2.6299999999999955,81.0811
2013-08-28 0:13:3.3700000000000045,81.0811
2013-08-28 0:13:4.1100000000000136,81.0811
2013-08-28 0:13:4.8500000000000227,82.1918
2013-08-28 0:13:5.5800000000000409,82.1918
2013-08-28 0:13:6.3099999999999454,83.3333
2013-08-28 0:13:7.0299999999999727,84.507
2013-08-28 0:13:7.7400000000000091,85.7143
2013-08-28 0:13:8.4400000000000546,89.5522
2013-08-28 0:13:9.1100000000000136,84.507
2013-08-28 0:13:9.82000000000005,88.2353
2013-08-28 0:13:10.5,88.2353
2013-08-28 0:13:11.17999999999995,88.2353
2013-08-28 0:13:11.860000000000014,89.5522
2013-08-28 0:13:12.529999999999973,89.5522
2013-08-28 0:13:15.210000000000036,89.5522
2013-08-28 0:13:15.879999999999995,88.2353
2013-08-28 0:13:16.559999999999945,88.2353
2013-08-28 0:13:17.240000000000009,90.9091
2013-08-28 0:13:17.899999999999977,88.2353
2013-08-28 0:13:18.580000000000041,88.2353
2013-08-28 0:13:19.259999999999991,89.5522
2013-08-28 0:13:19.92999999999995,92.3077
2013-08-28 0:13:20.580000000000041,86.9565
2013-08-28 0:13:21.269999999999982,89.5522
2013-08-28 0:13:21.940000000000055,89.5522
2013-08-28 0:13:22.610000000000014,90.9091
2013-08-28 0:13:23.269999999999982,89.5522
2013-08-28 0:13:23.940000000000055,88.2353
2013-08-28 0:13:24.620000000000005,86.9565
2013-08-28 0:13:25.309999999999945,85.7143
2013-08-28 0:13:26.009999999999991,85.7143
2013-08-28 0:13:26.710000000000036,84.507
2013-08-28 0:13:27.419999999999959,84.507
2013-08-28 0:13:28.129999999999995,84.507
2013-08-28 0:13:28.840000000000032,84.507
2013-08-28 0:13:29.549999999999955,85.7143
2013-08-28 0:13:30.25,84.507
2013-08-28 0:13:30.960000000000036,85.7143
2013-08-28 0:13:31.659999999999968,86.9565
2013-08-28 0:13:32.350000000000023,88.2353
2013-08-28 0:13:34.370000000000005,90.9091
2013-08-28 0:13:38.960000000000036,92.3077
2013-08-28 0:13:39.610000000000014,90.9091
2013-08-28 0:13:42.240000000000009,88.2353
2013-08-28 0:13:42.919999999999959,88.2353
2013-08-28 0:13:43.600000000000023,89.5522
2013-08-28 0:13:44.269999999999982,89.5522
2013-08-28 0:13:44.940000000000055,90.9091
2013-08-28 0:13:50.350000000000023,86.9565
2013-08-28 0:13:51.039999999999964,85.7143
2013-08-28 0:13:51.740000000000009,85.7143
2013-08-28 0:13:52.440000000000055,83.3333
2013-08-28 0:13:53.159999999999968,85.7143
2013-08-28 0:13:53.860000000000014,82.1918
2013-08-28 0:13:54.590000000000032,83.3333
2013-08-28 0:13:55.309999999999945,82.1918
2013-08-28 0:13:56.039999999999964,83.3333
2013-08-28 0:13:56.759999999999991,82.1918
2013-08-28 0:13:57.490000000000009,81.0811
2013-08-28 0:13:58.230000000000018,82.1918
2013-08-28 0:13:58.960000000000036,81.0811
2013-08-28 0:13:59.700000000000045,83.3333
2013-08-28 0:14:0.41999999999995907,82.1918
2013-08-28 0:14:1.1499999999999773,81.0811
2013-08-28 0:14:1.8899999999999864,81.0811
2013-08-28 0:14:2.6299999999999955,81.0811
2013-08-28 0:14:3.3700000000000045,81.0811
2013-08-28 0:14:4.1100000000000136,81.0811
2013-08-28 0:14:4.8500000000000227,80
2013-08-28 0:14:5.6000000000000227,80
2013-08-28 0:14:6.3500000000000227,80
2013-08-28 0:14:7.1000000000000227,77.9221
2013-08-28 0:14:7.8700000000000045,77.9221
2013-08-28 0:14:8.6399999999999864,77.9221
2013-08-28 0:14:9.4099999999999682,75.9494
2013-08-28 0:14:10.200000000000045,76.9231
2013-08-28 0:14:10.980000000000018,78.9474
2013-08-28 0:14:11.740000000000009,80
2013-08-28 0:14:14.720000000000027,83.3333
2013-08-28 0:14:16.210000000000036,81.0811
2013-08-28 0:14:16.950000000000045,81.0811
2013-08-28 0:14:17.690000000000055,80
2013-08-28 0:14:18.440000000000055,80
2013-08-28 0:14:19.190000000000055,80
2013-08-28 0:14:19.940000000000055,80
2013-08-28 0:14:20.690000000000055,80
2013-08-28 0:14:21.440000000000055,81.0811
2013-08-28 0:14:22.17999999999995,82.1918
2013-08-28 0:14:22.909999999999968,82.1918
2013-08-28 0:14:23.639999999999986,84.507
2013-08-28 0:14:24.350000000000023,86.9565
2013-08-28 0:14:25.039999999999964,85.7143
2013-08-28 0:14:25.740000000000009,86.9565
2013-08-28 0:14:26.42999999999995,95.2381
2013-08-28 0:14:27.799999999999955,88.2353
2013-08-28 0:14:28.480000000000018,86.9565
2013-08-28 0:14:29.169999999999959,86.9565
2013-08-28 0:14:29.860000000000014,86.9565
2013-08-28 0:14:30.549999999999955,85.7143
2013-08-28 0:14:31.25,84.507
2013-08-28 0:14:31.960000000000036,84.507
2013-08-28 0:14:32.669999999999959,83.3333
2013-08-28 0:14:33.389999999999986,81.0811
2013-08-28 0:14:34.129999999999995,81.0811
2013-08-28 0:14:34.870000000000005,81.0811
2013-08-28 0:14:35.610000000000014,81.0811
2013-08-28 0:14:36.350000000000023,80
2013-08-28 0:14:37.100000000000023,81.0811
2013-08-28 0:14:37.840000000000032,80
2013-08-28 0:14:38.590000000000032,80
2013-08-28 0:14:39.340000000000032,81.0811
2013-08-28 0:14:40.080000000000041,80
2013-08-28 0:14:40.830000000000041,77.9221
2013-08-28 0:14:41.600000000000023,75
2013-08-28 0:14:42.399999999999977,72.2892
2013-08-28 0:14:43.230000000000018,72.2892
2013-08-28 0:14:44.059999999999945,71.4286
2013-08-28 0:14:44.899999999999977,72.2892
2013-08-28 0:14:45.730000000000018,72.2892
2013-08-28 0:14:46.559999999999945,71.4286
2013-08-28 0:14:47.399999999999977,71.4286
2013-08-28 0:14:48.240000000000009,72.2892
2013-08-28 0:14:49.07000000000005,72.2892
2013-08-28 0:14:49.899999999999977,74.0741
2013-08-28 0:14:50.710000000000036,74.0741
2013-08-28 0:14:51.519999999999982,76.9231
2013-08-28 0:14:52.299999999999955,76.9231
2013-08-28 0:14:53.080000000000041,78.9474
2013-08-28 0:14:53.840000000000032,78.9474
2013-08-28 0:14:54.600000000000023,78.9474
2013-08-28 0:14:55.360000000000014,78.9474
2013-08-28 0:14:56.120000000000005,80
2013-08-28 0:14:56.870000000000005,80
2013-08-28 0:14:57.620000000000005,80
2013-08-28 0:14:58.370000000000005,78.9474
2013-08-28 0:14:59.129999999999995,78.9474
2013-08-28 0:14:59.889999999999986,80
2013-08-28 0:15:0.63999999999998636,78.9474
2013-08-28 0:15:1.3999999999999773,78.9474
2013-08-28 0:15:2.1599999999999682,77.9221
2013-08-28 0:15:2.92999999999995,77.9221
2013-08-28 0:15:3.7000000000000455,77.9221
2013-08-28 0:15:4.4700000000000273,76.9231
2013-08-28 0:15:5.25,77.9221
2013-08-28 0:15:6.0199999999999818,75.9494
2013-08-28 0:15:6.8099999999999454,76.9231
2013-08-28 0:15:7.5900000000000318,75.9494
2013-08-28 0:15:8.3799999999999955,77.9221
2013-08-28 0:15:9.1499999999999773,78.9474
2013-08-28 0:15:9.9099999999999682,81.0811
2013-08-28 0:15:10.649999999999977,82.1918
2013-08-28 0:15:11.379999999999995,82.1918
2013-08-28 0:15:12.110000000000014,81.0811
2013-08-28 0:15:12.850000000000023,80
2013-08-28 0:15:13.600000000000023,80
2013-08-28 0:15:14.350000000000023,77.9221
2013-08-28 0:15:15.120000000000005,78.9474
2013-08-28 0:15:15.879999999999995,77.9221
2013-08-28 0:15:16.649999999999977,77.9221
2013-08-28 0:15:17.419999999999959,77.9221
2013-08-28 0:15:18.190000000000055,78.9474
2013-08-28 0:15:18.950000000000045,80
2013-08-28 0:15:19.700000000000045,78.9474
2013-08-28 0:15:20.460000000000036,78.9474
2013-08-28 0:15:21.220000000000027,81.0811
2013-08-28 0:15:21.960000000000036,82.1918
2013-08-28 0:15:22.690000000000055,84.507
2013-08-28 0:15:23.399999999999977,84.507
2013-08-28 0:15:24.110000000000014,84.507
2013-08-28 0:15:24.82000000000005,83.3333
2013-08-28 0:15:25.539999999999964,82.1918
2013-08-28 0:15:26.269999999999982,80
2013-08-28 0:15:27.019999999999982,78.9474
2013-08-28 0:15:27.779999999999973,77.9221
2013-08-28 0:15:28.549999999999955,77.9221
2013-08-28 0:15:29.32000000000005,76.9231
2013-08-28 0:15:30.100000000000023,77.9221
2013-08-28 0:15:30.870000000000005,77.9221
2013-08-28 0:15:31.639999999999986,77.9221
2013-08-28 0:15:32.409999999999968,76.9231
2013-08-28 0:15:33.190000000000055,78.9474
2013-08-28 0:15:33.950000000000045,78.9474
2013-08-28 0:15:34.710000000000036,78.9474
2013-08-28 0:15:35.470000000000027,77.9221
2013-08-28 0:15:36.240000000000009,77.9221
2013-08-28 0:15:37.009999999999991,77.9221
2013-08-28 0:15:37.779999999999973,78.9474
2013-08-28 0:15:38.539999999999964,75.9494
2013-08-28 0:15:39.330000000000041,75.9494
2013-08-28 0:15:40.120000000000005,75
2013-08-28 0:15:40.919999999999959,75.9494
2013-08-28 0:15:41.710000000000036,75.9494
2013-08-28 0:15:42.5,75
2013-08-28 0:15:43.299999999999955,75
2013-08-28 0:15:44.100000000000023,74.0741
2013-08-28 0:15:44.909999999999968,74.0741
2013-08-28 0:15:45.720000000000027,74.0741
2013-08-28 0:15:46.529999999999973,75
2013-08-28 0:15:47.330000000000041,75
2013-08-28 0:15:48.129999999999995,76.9231
2013-08-28 0:15:48.909999999999968,75.9494
2013-08-28 0:15:49.700000000000045,76.9231
2013-08-28 0:15:50.480000000000018,75.9494
2013-08-28 0:15:51.269999999999982,76.9231
2013-08-28 0:15:52.049999999999955,77.9221
2013-08-28 0:15:52.82000000000005,76.9231
2013-08-28 0:15:53.600000000000023,76.9231
2013-08-28 0:15:54.379999999999995,77.9221
2013-08-28 0:15:55.149999999999977,77.9221
2013-08-28 0:15:55.919999999999959,77.9221
2013-08-28 0:15:56.690000000000055,76.9231
2013-08-28 0:15:57.470000000000027,76.9231
2013-08-28 0:15:58.25,77.9221
2013-08-28 0:15:59.019999999999982,77.9221
2013-08-28 0:15:59.789999999999964,77.9221
2013-08-28 0:16:0.55999999999994543,77.9221
2013-08-28 0:16:1.3300000000000409,78.9474
2013-08-28 0:16:2.0900000000000318,78.9474
2013-08-28 0:16:2.8500000000000227,78.9474
2013-08-28 0:16:3.6100000000000136,80
2013-08-28 0:16:4.3600000000000136,77.9221
2013-08-28 0:16:5.1299999999999955,80
2013-08-28 0:16:5.8799999999999955,78.9474
2013-08-28 0:16:6.6399999999999864,80
2013-08-28 0:16:7.3899999999999864,78.9474
2013-08-28 0:16:8.1499999999999773,78.9474
2013-08-28 0:16:8.9099999999999682,77.9221
2013-08-28 0:16:9.67999999999995,78.9474
2013-08-28 0:16:10.440000000000055,84.507
2013-08-28 0:16:11.809999999999945,88.2353
2013-08-28 0:16:12.490000000000009,83.3333
2013-08-28 0:16:13.210000000000036,83.3333
2013-08-28 0:16:13.92999999999995,82.1918
2013-08-28 0:16:14.659999999999968,83.3333
2013-08-28 0:16:15.379999999999995,83.3333
2013-08-28 0:16:16.100000000000023,83.3333
2013-08-28 0:16:16.82000000000005,84.507
2013-08-28 0:16:17.529999999999973,84.507
2013-08-28 0:16:18.240000000000009,84.507
2013-08-28 0:16:18.950000000000045,82.1918
2013-08-28 0:16:19.67999999999995,83.3333
2013-08-28 0:16:20.399999999999977,84.507
2013-08-28 0:16:21.110000000000014,82.1918
2013-08-28 0:16:21.840000000000032,83.3333
2013-08-28 0:16:22.559999999999945,82.1918
2013-08-28 0:16:23.289999999999964,81.0811
2013-08-28 0:16:24.029999999999973,82.1918
2013-08-28 0:16:24.759999999999991,82.1918
2013-08-28 0:16:25.490000000000009,82.1918
2013-08-28 0:16:26.220000000000027,81.0811
2013-08-28 0:16:26.960000000000036,81.0811
2013-08-28 0:16:27.700000000000045,81.0811
2013-08-28 0:16:28.440000000000055,82.1918
2013-08-28 0:16:29.169999999999959,80
2013-08-28 0:16:29.919999999999959,81.0811
2013-08-28 0:16:30.659999999999968,81.0811
2013-08-28 0:16:31.399999999999977,82.1918
2013-08-28 0:16:32.129999999999995,81.0811
2013-08-28 0:16:32.870000000000005,83.3333
2013-08-28 0:16:33.590000000000032,82.1918
2013-08-28 0:16:34.32000000000005,82.1918
2013-08-28 0:16:35.049999999999955,83.3333
2013-08-28 0:16:35.769999999999982,83.3333
2013-08-28 0:16:36.490000000000009,83.3333
2013-08-28 0:16:37.210000000000036,84.507
2013-08-28 0:16:37.919999999999959,83.3333
2013-08-28 0:16:38.639999999999986,83.3333
2013-08-28 0:16:39.360000000000014,84.507
2013-08-28 0:16:40.07000000000005,84.507
2013-08-28 0:16:40.779999999999973,84.507
2013-08-28 0:16:41.490000000000009,83.3333
2013-08-28 0:16:42.210000000000036,84.507
2013-08-28 0:16:42.919999999999959,84.507
2013-08-28 0:16:43.629999999999995,83.3333
2013-08-28 0:16:44.350000000000023,84.507
2013-08-28 0:16:45.059999999999945,83.3333
2013-08-28 0:16:45.779999999999973,82.1918
2013-08-28 0:16:46.509999999999991,83.3333
2013-08-28 0:16:47.230000000000018,82.1918
2013-08-28 0:16:47.960000000000036,82.1918
2013-08-28 0:16:48.690000000000055,83.3333
2013-08-28 0:16:49.409999999999968,81.0811
2013-08-28 0:16:50.149999999999977,83.3333
2013-08-28 0:16:50.870000000000005,82.1918
2013-08-28 0:16:51.600000000000023,83.3333
2013-08-28 0:16:52.32000000000005,82.1918
2013-08-28 0:16:53.049999999999955,82.1918
2013-08-28 0:16:53.779999999999973,83.3333
2013-08-28 0:16:54.5,83.3333
2013-08-28 0:16:55.220000000000027,83.3333
2013-08-28 0:16:55.940000000000055,84.507
2013-08-28 0:16:56.649999999999977,83.3333
2013-08-28 0:16:57.370000000000005,83.3333
2013-08-28 0:16:58.090000000000032,83.3333
2013-08-28 0:16:58.809999999999945,83.3333
2013-08-28 0:16:59.529999999999973,83.3333
2013-08-28 0:17:0.25,83.3333
2013-08-28 0:17:0.97000000000002728,84.507
2013-08-28 0:17:1.67999999999995,84.507
2013-08-28 0:17:2.3899999999999864,85.7143
2013-08-28 0:17:3.0900000000000318,85.7143
2013-08-28 0:17:3.7899999999999636,85.7143
2013-08-28 0:17:4.4900000000000091,85.7143
2013-08-28 0:17:5.1900000000000546,84.507
2013-08-28 0:17:5.9000000000000909,84.507
2013-08-28 0:17:6.6099999999999,84.507
2013-08-28 0:17:7.3199999999999363,83.3333
2013-08-28 0:17:8.0399999999999636,82.1918
2013-08-28 0:17:8.7699999999999818,83.3333
2013-08-28 0:17:9.4900000000000091,84.507
2013-08-28 0:17:10.200000000000045,85.7143
2013-08-28 0:17:10.900000000000091,85.7143
2013-08-28 0:17:11.599999999999909,86.9565
2013-08-28 0:17:12.289999999999964,86.9565
2013-08-28 0:17:12.980000000000018,86.9565
2013-08-28 0:17:13.670000000000073,85.7143
2013-08-28 0:17:14.369999999999891,84.507
2013-08-28 0:17:15.079999999999927,84.507
2013-08-28 0:17:15.789999999999964,82.1918
2013-08-28 0:17:16.519999999999982,82.1918
2013-08-28 0:17:17.25,82.1918
2013-08-28 0:17:17.980000000000018,80
2013-08-28 0:17:18.730000000000018,81.0811
2013-08-28 0:17:19.470000000000027,81.0811
2013-08-28 0:17:20.210000000000036,82.1918
2013-08-28 0:17:20.940000000000055,83.3333
2013-08-28 0:17:21.660000000000082,83.3333
2013-08-28 0:17:22.380000000000109,84.507
2013-08-28 0:17:23.089999999999918,85.7143
2013-08-28 0:17:23.789999999999964,85.7143
2013-08-28 0:17:24.490000000000009,84.507
2013-08-28 0:17:25.200000000000045,85.7143
2013-08-28 0:17:25.900000000000091,83.3333
2013-08-28 0:17:26.619999999999891,83.3333
2013-08-28 0:17:27.339999999999918,82.1918
2013-08-28 0:17:28.069999999999936,82.1918
2013-08-28 0:17:28.799999999999955,81.0811
2013-08-28 0:17:29.539999999999964,81.0811
2013-08-28 0:17:30.279999999999973,80
2013-08-28 0:17:31.029999999999973,80
2013-08-28 0:17:31.779999999999973,80
2013-08-28 0:17:32.529999999999973,78.9474
2013-08-28 0:17:33.289999999999964,78.9474
2013-08-28 0:17:34.049999999999955,80
2013-08-28 0:17:34.799999999999955,77.9221
2013-08-28 0:17:35.569999999999936,77.9221
2013-08-28 0:17:36.339999999999918,78.9474
2013-08-28 0:17:37.099999999999909,77.9221
2013-08-28 0:17:37.869999999999891,78.9474
2013-08-28 0:17:38.630000000000109,78.9474
2013-08-28 0:17:39.3900000000001,80
2013-08-28 0:17:40.1400000000001,78.9474
2013-08-28 0:17:40.900000000000091,80
2013-08-28 0:17:41.650000000000091,80
2013-08-28 0:17:42.400000000000091,80
2013-08-28 0:17:43.150000000000091,80
2013-08-28 0:17:43.900000000000091,80
2013-08-28 0:17:44.650000000000091,80
2013-08-28 0:17:45.400000000000091,80
2013-08-28 0:17:46.150000000000091,80
2013-08-28 0:17:46.900000000000091,78.9474
2013-08-28 0:17:47.660000000000082,80
2013-08-28 0:17:48.410000000000082,78.9474
2013-08-28 0:17:49.170000000000073,78.9474
2013-08-28 0:17:49.930000000000064,78.9474
2013-08-28 0:17:50.690000000000055,80
2013-08-28 0:17:51.440000000000055,78.9474
2013-08-28 0:17:52.200000000000045,80
2013-08-28 0:17:52.950000000000045,78.9474
2013-08-28 0:17:53.710000000000036,80
2013-08-28 0:17:54.460000000000036,80
2013-08-28 0:17:55.210000000000036,80
2013-08-28 0:17:55.960000000000036,78.9474
2013-08-28 0:17:56.720000000000027,78.9474
2013-08-28 0:17:57.480000000000018,77.9221
2013-08-28 0:17:58.25,77.9221
2013-08-28 0:17:59.019999999999982,78.9474
2013-08-28 0:17:59.779999999999973,77.9221
2013-08-28 0:18:0.54999999999995453,77.9221
2013-08-28 0:18:1.3199999999999363,76.9231
2013-08-28 0:18:2.0999999999999091,76.9231
2013-08-28 0:18:2.8800000000001091,77.9221
2013-08-28 0:18:3.6500000000000909,77.9221
2013-08-28 0:18:4.4200000000000728,77.9221
2013-08-28 0:18:5.1900000000000546,78.9474
2013-08-28 0:18:5.9500000000000455,78.9474
2013-08-28 0:18:6.7100000000000364,80
2013-08-28 0:18:7.4600000000000364,78.9474
2013-08-28 0:18:8.2200000000000273,80
2013-08-28 0:18:8.9700000000000273,80
2013-08-28 0:18:9.7200000000000273,80
2013-08-28 0:18:10.470000000000027,80
2013-08-28 0:18:11.220000000000027,80
2013-08-28 0:18:11.970000000000027,78.9474
2013-08-28 0:18:12.730000000000018,78.9474
2013-08-28 0:18:13.490000000000009,78.9474
2013-08-28 0:18:14.25,77.9221
2013-08-28 0:18:15.019999999999982,78.9474
2013-08-28 0:18:15.779999999999973,77.9221
2013-08-28 0:18:16.549999999999955,76.9231
2013-08-28 0:18:17.329999999999927,77.9221
2013-08-28 0:18:18.099999999999909,77.9221
2013-08-28 0:18:18.869999999999891,77.9221
2013-08-28 0:18:19.6400000000001,77.9221
2013-08-28 0:18:20.410000000000082,76.9231
2013-08-28 0:18:21.190000000000055,78.9474
2013-08-28 0:18:21.950000000000045,77.9221
2013-08-28 0:18:22.720000000000027,78.9474
2013-08-28 0:18:23.480000000000018,80
2013-08-28 0:18:24.230000000000018,78.9474
2013-08-28 0:18:24.990000000000009,78.9474
2013-08-28 0:18:25.75,77.9221
2013-08-28 0:18:26.519999999999982,78.9474
2013-08-28 0:18:27.279999999999973,77.9221
2013-08-28 0:18:28.049999999999955,76.9231
2013-08-28 0:18:28.829999999999927,76.9231
2013-08-28 0:18:29.6099999999999,76.9231
2013-08-28 0:18:30.3900000000001,75.9494
2013-08-28 0:18:31.180000000000064,76.9231
2013-08-28 0:18:31.960000000000036,75.9494
2013-08-28 0:18:32.75,76.9231
2013-08-28 0:18:33.529999999999973,76.9231
2013-08-28 0:18:34.309999999999945,76.9231
2013-08-28 0:18:35.089999999999918,76.9231
2013-08-28 0:18:35.869999999999891,77.9221
2013-08-28 0:18:36.6400000000001,76.9231
2013-08-28 0:18:37.420000000000073,77.9221
2013-08-28 0:18:38.190000000000055,77.9221
2013-08-28 0:18:38.960000000000036,78.9474
2013-08-28 0:18:39.720000000000027,77.9221
2013-08-28 0:18:40.490000000000009,77.9221
2013-08-28 0:18:41.259999999999991,77.9221
2013-08-28 0:18:42.029999999999973,77.9221
2013-08-28 0:18:42.799999999999955,78.9474
2013-08-28 0:18:43.559999999999945,77.9221
2013-08-28 0:18:44.329999999999927,77.9221
2013-08-28 0:18:45.099999999999909,77.9221
2013-08-28 0:18:45.869999999999891,78.9474
2013-08-28 0:18:46.630000000000109,77.9221
2013-08-28 0:18:47.400000000000091,77.9221
2013-08-28 0:18:48.170000000000073,78.9474
2013-08-28 0:18:48.930000000000064,77.9221
2013-08-28 0:18:49.700000000000045,77.9221
2013-08-28 0:18:50.470000000000027,77.9221
2013-08-28 0:18:51.240000000000009,77.9221
2013-08-28 0:18:52.009999999999991,77.9221
2013-08-28 0:18:52.779999999999973,77.9221
2013-08-28 0:18:53.549999999999955,77.9221
2013-08-28 0:18:54.319999999999936,77.9221
2013-08-28 0:18:55.089999999999918,77.9221
2013-08-28 0:18:55.8599999999999,77.9221
2013-08-28 0:18:56.630000000000109,77.9221
2013-08-28 0:18:57.400000000000091,76.9231
2013-08-28 0:18:58.180000000000064,77.9221
2013-08-28 0:18:58.950000000000045,77.9221
2013-08-28 0:18:59.720000000000027,77.9221
2013-08-28 0:19:0.49000000000000909,77.9221
2013-08-28 0:19:1.2599999999999909,77.9221
2013-08-28 0:19:2.0299999999999727,77.9221
2013-08-28 0:19:2.7999999999999545,78.9474
2013-08-28 0:19:3.5599999999999454,77.9221
2013-08-28 0:19:4.3299999999999272,78.9474
2013-08-28 0:19:5.0899999999999181,77.9221
2013-08-28 0:19:5.8599999999999,78.9474
2013-08-28 0:19:6.6199999999998909,77.9221
2013-08-28 0:19:7.3900000000001,78.9474
2013-08-28 0:19:8.1500000000000909,78.9474
2013-08-28 0:19:8.9100000000000819,77.9221
2013-08-28 0:19:9.6800000000000637,78.9474
2013-08-28 0:19:10.440000000000055,77.9221
2013-08-28 0:19:11.210000000000036,78.9474
2013-08-28 0:19:11.970000000000027,77.9221
2013-08-28 0:19:12.740000000000009,78.9474
2013-08-28 0:19:13.5,76.9231
2013-08-28 0:19:14.279999999999973,77.9221
2013-08-28 0:19:15.049999999999955,76.9231
2013-08-28 0:19:15.829999999999927,76.9231
2013-08-28 0:19:16.6099999999999,76.9231
2013-08-28 0:19:17.3900000000001,76.9231
2013-08-28 0:19:18.170000000000073,76.9231
2013-08-28 0:19:18.950000000000045,76.9231
2013-08-28 0:19:19.730000000000018,76.9231
2013-08-28 0:19:20.509999999999991,77.9221
2013-08-28 0:19:21.279999999999973,76.9231
2013-08-28 0:19:22.059999999999945,76.9231
2013-08-28 0:19:22.839999999999918,77.9221
2013-08-28 0:19:23.6099999999999,76.9231
2013-08-28 0:19:24.3900000000001,75.9494
2013-08-28 0:19:25.180000000000064,77.9221
2013-08-28 0:19:25.950000000000045,77.9221
2013-08-28 0:19:26.720000000000027,77.9221
2013-08-28 0:19:27.490000000000009,77.9221
2013-08-28 0:19:28.259999999999991,75.9494
2013-08-28 0:19:29.049999999999955,77.9221
2013-08-28 0:19:29.819999999999936,77.9221
2013-08-28 0:19:30.589999999999918,77.9221
2013-08-28 0:19:31.3599999999999,80
2013-08-28 0:19:32.1099999999999,80
2013-08-28 0:19:32.8599999999999,81.0811
2013-08-28 0:19:33.599999999999909,81.0811
2013-08-28 0:19:34.339999999999918,82.1918
2013-08-28 0:19:35.069999999999936,82.1918
2013-08-28 0:19:35.799999999999955,82.1918
2013-08-28 0:19:36.529999999999973,83.3333
2013-08-28 0:19:37.25,83.3333
2013-08-28 0:19:37.970000000000027,84.507
2013-08-28 0:19:38.680000000000064,83.3333
2013-08-28 0:19:39.400000000000091,84.507
2013-08-28 0:19:40.1099999999999,84.507
2013-08-28 0:19:40.819999999999936,83.3333
2013-08-28 0:19:41.539999999999964,85.7143
2013-08-28 0:19:42.240000000000009,85.7143
2013-08-28 0:19:42.940000000000055,85.7143
2013-08-28 0:19:43.6400000000001,84.507
2013-08-28 0:19:44.349999999999909,85.7143
2013-08-28 0:19:45.049999999999955,84.507
2013-08-28 0:19:45.759999999999991,83.3333
2013-08-28 0:19:46.480000000000018,82.1918
2013-08-28 0:19:47.210000000000036,82.1918
2013-08-28 0:19:47.940000000000055,82.1918
2013-08-28 0:19:48.670000000000073,83.3333
2013-08-28 0:19:49.3900000000001,82.1918
2013-08-28 0:19:50.119999999999891,81.0811
2013-08-28 0:19:50.8599999999999,80
2013-08-28 0:19:51.6099999999999,80
2013-08-28 0:19:52.3599999999999,80
2013-08-28 0:19:53.1099999999999,78.9474
2013-08-28 0:19:53.869999999999891,77.9221
2013-08-28 0:19:54.6400000000001,76.9231
2013-08-28 0:19:55.420000000000073,76.9231
2013-08-28 0:19:56.200000000000045,77.9221
2013-08-28 0:19:56.970000000000027,76.9231
2013-08-28 0:19:57.75,75.9494
2013-08-28 0:19:58.539999999999964,76.9231
2013-08-28 0:19:59.319999999999936,75.9494
2013-08-28 0:20:0.10999999999989996,76.9231
2013-08-28 0:20:0.89000000000010004,75.9494
2013-08-28 0:20:1.6800000000000637,75.9494
2013-08-28 0:20:2.4700000000000273,75
2013-08-28 0:20:3.2699999999999818,75.9494
2013-08-28 0:20:4.0599999999999454,75.9494
2013-08-28 0:20:4.8499999999999091,75.9494
2013-08-28 0:20:5.6400000000001,75
2013-08-28 0:20:6.4400000000000546,75
2013-08-28 0:20:7.2400000000000091,75.9494
2013-08-28 0:20:8.0299999999999727,75.9494
2013-08-28 0:20:8.8199999999999363,75
2013-08-28 0:20:9.6199999999998909,75.9494
2013-08-28 0:20:10.410000000000082,75
2013-08-28 0:20:11.210000000000036,75.9494
2013-08-28 0:20:12.0,76.9231
2013-08-28 0:20:12.779999999999973,75.9494
2013-08-28 0:20:13.569999999999936,75
2013-08-28 0:20:14.369999999999891,75.9494
2013-08-28 0:20:15.160000000000082,75.9494
2013-08-28 0:20:15.950000000000045,75.9494
2013-08-28 0:20:16.740000000000009,75
2013-08-28 0:20:17.539999999999964,75.9494
2013-08-28 0:20:18.329999999999927,74.0741
2013-08-28 0:20:19.1400000000001,75.9494
2013-08-28 0:20:19.930000000000064,75
2013-08-28 0:20:20.730000000000018,75
2013-08-28 0:20:21.529999999999973,74.0741
2013-08-28 0:20:22.339999999999918,74.0741
2013-08-28 0:20:23.150000000000091,74.0741
2013-08-28 0:20:23.960000000000036,74.0741
2013-08-28 0:20:24.769999999999982,74.0741
2013-08-28 0:20:25.579999999999927,74.0741
2013-08-28 0:20:26.3900000000001,74.0741
2013-08-28 0:20:27.200000000000045,74.0741
2013-08-28 0:20:28.009999999999991,74.0741
2013-08-28 0:20:28.819999999999936,72.2892
2013-08-28 0:20:29.650000000000091,73.1707
2013-08-28 0:20:30.470000000000027,74.0741
2013-08-28 0:20:31.279999999999973,73.1707
2013-08-28 0:20:32.099999999999909,74.0741
2013-08-28 0:20:32.910000000000082,74.0741
2013-08-28 0:20:33.720000000000027,75
2013-08-28 0:20:34.519999999999982,75
2013-08-28 0:20:35.319999999999936,75
2013-08-28 0:20:36.119999999999891,75.9494
2013-08-28 0:20:36.910000000000082,75.9494
2013-08-28 0:20:37.700000000000045,76.9231
2013-08-28 0:20:38.480000000000018,77.9221
2013-08-28 0:20:39.25,76.9231
2013-08-28 0:20:40.029999999999973,77.9221
2013-08-28 0:20:40.799999999999955,76.9231
2013-08-28 0:20:41.579999999999927,77.9221
2013-08-28 0:20:42.349999999999909,77.9221
2013-08-28 0:20:43.119999999999891,76.9231
2013-08-28 0:20:43.900000000000091,76.9231
2013-08-28 0:20:44.680000000000064,76.9231
2013-08-28 0:20:45.460000000000036,75.9494
2013-08-28 0:20:46.25,75
2013-08-28 0:20:47.049999999999955,75
2013-08-28 0:20:47.849999999999909,75
2013-08-28 0:20:48.650000000000091,75.9494
2013-08-28 0:20:49.440000000000055,75.9494
2013-08-28 0:20:50.230000000000018,75.9494
2013-08-28 0:20:51.019999999999982,75.9494
2013-08-28 0:20:51.809999999999945,76.9231
2013-08-28 0:20:52.589999999999918,76.9231
2013-08-28 0:20:53.369999999999891,76.9231
2013-08-28 0:20:54.150000000000091,76.9231
2013-08-28 0:20:54.930000000000064,77.9221
2013-08-28 0:20:55.700000000000045,77.9221
2013-08-28 0:20:56.470000000000027,77.9221
2013-08-28 0:20:57.240000000000009,76.9231
2013-08-28 0:20:58.019999999999982,77.9221
2013-08-28 0:20:58.789999999999964,76.9231
2013-08-28 0:20:59.569999999999936,76.9231
2013-08-28 0:21:0.34999999999990905,76.9231
2013-08-28 0:21:1.1300000000001091,77.9221
2013-08-28 0:21:1.9000000000000909,76.9231
2013-08-28 0:21:2.6800000000000637,77.9221
2013-08-28 0:21:3.4500000000000455,77.9221
2013-08-28 0:21:4.2200000000000273,77.9221
2013-08-28 0:21:4.9900000000000091,77.9221
2013-08-28 0:21:5.7599999999999909,77.9221
2013-08-28 0:21:6.5299999999999727,77.9221
2013-08-28 0:21:7.2999999999999545,76.9231
2013-08-28 0:21:8.0799999999999272,77.9221
2013-08-28 0:21:8.8499999999999091,76.9231
2013-08-28 0:21:9.6300000000001091,77.9221
2013-08-28 0:21:10.400000000000091,77.9221
2013-08-28 0:21:11.170000000000073,77.9221
2013-08-28 0:21:11.940000000000055,77.9221
2013-08-28 0:21:12.710000000000036,77.9221
2013-08-28 0:21:13.480000000000018,77.9221
2013-08-28 0:21:14.25,78.9474
2013-08-28 0:21:15.009999999999991,77.9221
2013-08-28 0:21:15.779999999999973,78.9474
2013-08-28 0:21:16.539999999999964,77.9221
2013-08-28 0:21:17.309999999999945,77.9221
2013-08-28 0:21:18.079999999999927,78.9474
2013-08-28 0:21:18.839999999999918,78.9474
2013-08-28 0:21:19.599999999999909,77.9221
2013-08-28 0:21:20.369999999999891,78.9474
2013-08-28 0:21:21.130000000000109,78.9474
2013-08-28 0:21:21.8900000000001,77.9221
2013-08-28 0:21:22.660000000000082,77.9221
2013-08-28 0:21:23.430000000000064,78.9474
2013-08-28 0:21:24.190000000000055,76.9231
2013-08-28 0:21:24.970000000000027,77.9221
2013-08-28 0:21:25.740000000000009,77.9221
2013-08-28 0:21:26.509999999999991,75.9494
2013-08-28 0:21:27.299999999999955,76.9231
2013-08-28 0:21:28.079999999999927,76.9231
2013-08-28 0:21:28.8599999999999,75
2013-08-28 0:21:29.660000000000082,75.9494
2013-08-28 0:21:30.450000000000045,75.9494
2013-08-28 0:21:31.240000000000009,76.9231
2013-08-28 0:21:32.019999999999982,75.9494
2013-08-28 0:21:32.809999999999945,75.9494
2013-08-28 0:21:33.599999999999909,76.9231
2013-08-28 0:21:34.380000000000109,76.9231
2013-08-28 0:21:35.160000000000082,76.9231
2013-08-28 0:21:35.940000000000055,76.9231
2013-08-28 0:21:36.720000000000027,77.9221
2013-08-28 0:21:37.490000000000009,77.9221
2013-08-28 0:21:38.259999999999991,76.9231
2013-08-28 0:21:39.039999999999964,77.9221
2013-08-28 0:21:39.809999999999945,77.9221
2013-08-28 0:21:40.579999999999927,77.9221
2013-08-28 0:21:41.349999999999909,77.9221
2013-08-28 0:21:42.119999999999891,77.9221
2013-08-28 0:21:42.8900000000001,77.9221
2013-08-28 0:21:43.660000000000082,77.9221
2013-08-28 0:21:44.430000000000064,77.9221
2013-08-28 0:21:45.200000000000045,78.9474
2013-08-28 0:21:45.960000000000036,77.9221
2013-08-28 0:21:46.730000000000018,77.9221
2013-08-28 0:21:47.5,76.9231
2013-08-28 0:21:48.279999999999973,76.9231
2013-08-28 0:21:49.059999999999945,77.9221
2013-08-28 0:21:49.829999999999927,76.9231
2013-08-28 0:21:50.6099999999999,77.9221
2013-08-28 0:21:51.380000000000109,75.9494
2013-08-28 0:21:52.170000000000073,76.9231
2013-08-28 0:21:52.950000000000045,77.9221
2013-08-28 0:21:53.720000000000027,76.9231
2013-08-28 0:21:54.5,77.9221
2013-08-28 0:21:55.269999999999982,76.9231
2013-08-28 0:21:56.049999999999955,76.9231
2013-08-28 0:21:56.829999999999927,77.9221
2013-08-28 0:21:57.599999999999909,75.9494
2013-08-28 0:21:58.3900000000001,76.9231
2013-08-28 0:21:59.170000000000073,76.9231
2013-08-28 0:21:59.950000000000045,75.9494
2013-08-28 0:22:0.74000000000000909,76.9231
2013-08-28 0:22:1.5199999999999818,77.9221
2013-08-28 0:22:2.2899999999999636,76.9231
2013-08-28 0:22:3.0699999999999363,77.9221
2013-08-28 0:22:3.8399999999999181,77.9221
2013-08-28 0:22:4.6099999999999,77.9221
2013-08-28 0:22:5.3800000000001091,76.9231
2013-08-28 0:22:6.1600000000000819,77.9221
2013-08-28 0:22:6.9300000000000637,77.9221
2013-08-28 0:22:7.7000000000000455,78.9474
2013-08-28 0:22:8.4600000000000364,77.9221
2013-08-28 0:22:9.2300000000000182,77.9221
2013-08-28 0:22:10.0,77.9221
2013-08-28 0:22:10.769999999999982,78.9474
2013-08-28 0:22:11.529999999999973,78.9474
2013-08-28 0:22:12.289999999999964,77.9221
2013-08-28 0:22:13.059999999999945,77.9221
2013-08-28 0:22:13.829999999999927,77.9221
2013-08-28 0:22:14.599999999999909,78.9474
2013-08-28 0:22:15.3599999999999,78.9474
2013-08-28 0:22:16.119999999999891,80
2013-08-28 0:22:16.869999999999891,77.9221
2013-08-28 0:22:17.6400000000001,80
2013-08-28 0:22:18.3900000000001,80
2013-08-28 0:22:19.1400000000001,78.9474
2013-08-28 0:22:19.900000000000091,78.9474
2013-08-28 0:22:20.660000000000082,77.9221
2013-08-28 0:22:21.430000000000064,78.9474
2013-08-28 0:22:22.190000000000055,77.9221
2013-08-28 0:22:22.960000000000036,78.9474
2013-08-28 0:22:23.720000000000027,77.9221
2013-08-28 0:22:24.490000000000009,77.9221
2013-08-28 0:22:25.259999999999991,77.9221
2013-08-28 0:22:26.029999999999973,77.9221
2013-08-28 0:22:26.799999999999955,76.9231
2013-08-28 0:22:27.579999999999927,76.9231
2013-08-28 0:22:28.3599999999999,76.9231
2013-08-28 0:22:29.1400000000001,75.9494
2013-08-28 0:22:29.930000000000064,76.9231
2013-08-28 0:22:30.710000000000036,75.9494
2013-08-28 0:22:31.5,75.9494
2013-08-28 0:22:32.289999999999964,75.9494
2013-08-28 0:22:33.079999999999927,75.9494
2013-08-28 0:22:33.869999999999891,75.9494
2013-08-28 0:22:34.660000000000082,75.9494
2013-08-28 0:22:35.450000000000045,76.9231
2013-08-28 0:22:36.230000000000018,75.9494
2013-08-28 0:22:37.019999999999982,75.9494
2013-08-28 0:22:37.809999999999945,76.9231
2013-08-28 0:22:38.589999999999918,76.9231
2013-08-28 0:22:39.369999999999891,75.9494
2013-08-28 0:22:40.160000000000082,76.9231
2013-08-28 0:22:40.940000000000055,75.9494
2013-08-28 0:22:41.730000000000018,76.9231
2013-08-28 0:22:42.509999999999991,75.9494
2013-08-28 0:22:43.299999999999955,76.9231
2013-08-28 0:22:44.079999999999927,75.9494
2013-08-28 0:22:44.869999999999891,75.9494
2013-08-28 0:22:45.660000000000082,75.9494
2013-08-28 0:22:46.450000000000045,75
2013-08-28 0:22:47.25,75
2013-08-28 0:22:48.049999999999955,75.9494
2013-08-28 0:22:48.839999999999918,75
2013-08-28 0:22:49.6400000000001,74.0741
2013-08-28 0:22:50.450000000000045,75
2013-08-28 0:22:51.25,75
2013-08-28 0:22:52.049999999999955,74.0741
2013-08-28 0:22:52.8599999999999,74.0741
2013-08-28 0:22:53.670000000000073,74.0741
2013-08-28 0:22:54.480000000000018,73.1707
2013-08-28 0:22:55.299999999999955,74.0741
2013-08-28 0:22:56.1099999999999,74.0741
2013-08-28 0:22:56.920000000000073,74.0741
2013-08-28 0:22:57.730000000000018,74.0741
2013-08-28 0:22:58.539999999999964,73.1707
2013-08-28 0:22:59.3599999999999,75
2013-08-28 0:23:0.16000000000008185,75
2013-08-28 0:23:0.96000000000003638,75
2013-08-28 0:23:1.7599999999999909,75
2013-08-28 0:23:2.5599999999999454,75
2013-08-28 0:23:3.3599999999999,75.9494
2013-08-28 0:23:4.1500000000000909,75.9494
2013-08-28 0:23:4.9400000000000546,75.9494
2013-08-28 0:23:5.7300000000000182,75.9494
2013-08-28 0:23:6.5199999999999818,75.9494
2013-08-28 0:23:7.3099999999999454,76.9231
2013-08-28 0:23:8.0899999999999181,76.9231
2013-08-28 0:23:8.8699999999998909,76.9231
2013-08-28 0:23:9.6500000000000909,76.9231
2013-08-28 0:23:10.430000000000064,76.9231
2013-08-28 0:23:11.210000000000036,76.9231
2013-08-28 0:23:11.990000000000009,75.9494
2013-08-28 0:23:12.779999999999973,76.9231
2013-08-28 0:23:13.559999999999945,75.9494
2013-08-28 0:23:14.349999999999909,75.9494
2013-08-28 0:23:15.1400000000001,75.9494
2013-08-28 0:23:15.930000000000064,75.9494
2013-08-28 0:23:16.720000000000027,75.9494
2013-08-28 0:23:17.509999999999991,75
2013-08-28 0:23:18.309999999999945,75
2013-08-28 0:23:19.1099999999999,75.9494
2013-08-28 0:23:19.900000000000091,74.0741
2013-08-28 0:23:20.710000000000036,75
2013-08-28 0:23:21.509999999999991,73.1707
2013-08-28 0:23:22.329999999999927,75
2013-08-28 0:23:23.130000000000109,74.0741
2013-08-28 0:23:23.940000000000055,75
2013-08-28 0:23:24.740000000000009,75
2013-08-28 0:23:25.539999999999964,75
2013-08-28 0:23:26.339999999999918,75.9494
2013-08-28 0:23:27.130000000000109,75.9494
2013-08-28 0:23:27.920000000000073,75.9494
2013-08-28 0:23:28.710000000000036,75
2013-08-28 0:23:29.509999999999991,75
2013-08-28 0:23:30.309999999999945,75
2013-08-28 0:23:31.1099999999999,75
2013-08-28 0:23:31.910000000000082,75
2013-08-28 0:23:32.710000000000036,74.0741
2013-08-28 0:23:33.519999999999982,74.0741
2013-08-28 0:23:34.329999999999927,73.1707
2013-08-28 0:23:35.150000000000091,72.2892
2013-08-28 0:23:35.980000000000018,73.1707
2013-08-28 0:23:36.799999999999955,72.2892
2013-08-28 0:23:37.630000000000109,72.2892
2013-08-28 0:23:38.460000000000036,73.1707
2013-08-28 0:23:39.279999999999973,73.1707
2013-08-28 0:23:40.099999999999909,74.0741
2013-08-28 0:23:40.910000000000082,73.1707
2013-08-28 0:23:41.730000000000018,75
2013-08-28 0:23:42.529999999999973,75.9494
2013-08-28 0:23:43.319999999999936,75
2013-08-28 0:23:44.119999999999891,75
2013-08-28 0:23:44.920000000000073,75
2013-08-28 0:23:45.720000000000027,75.9494
2013-08-28 0:23:46.509999999999991,75.9494
2013-08-28 0:23:47.299999999999955,76.9231
2013-08-28 0:23:48.079999999999927,75
2013-08-28 0:23:48.880000000000109,75
2013-08-28 0:23:49.680000000000064,75.9494
2013-08-28 0:23:50.470000000000027,75.9494
2013-08-28 0:23:51.259999999999991,75
2013-08-28 0:23:52.059999999999945,75.9494
2013-08-28 0:23:52.849999999999909,75
2013-08-28 0:23:53.650000000000091,75
2013-08-28 0:23:54.450000000000045,74.0741
2013-08-28 0:23:55.259999999999991,74.0741
2013-08-28 0:23:56.069999999999936,75
2013-08-28 0:23:56.869999999999891,75
2013-08-28 0:23:57.670000000000073,74.0741
2013-08-28 0:23:58.480000000000018,75
2013-08-28 0:23:59.279999999999973,75.9494
2013-08-28 0:24:0.069999999999936335,75.9494
2013-08-28 0:24:0.85999999999989996,75.9494
2013-08-28 0:24:1.6500000000000909,75.9494
2013-08-28 0:24:2.4400000000000546,75.9494
2013-08-28 0:24:3.2300000000000182,75.9494
2013-08-28 0:24:4.0199999999999818,75.9494
2013-08-28 0:24:4.8099999999999454,76.9231
2013-08-28 0:24:5.5899999999999181,75
2013-08-28 0:24:6.3900000000001,75
2013-08-28 0:24:7.1900000000000546,75.9494
2013-08-28 0:24:7.9800000000000182,75.9494
2013-08-28 0:24:8.7699999999999818,75
2013-08-28 0:24:9.5699999999999363,75
2013-08-28 0:24:10.369999999999891,74.0741
2013-08-28 0:24:11.180000000000064,75
2013-08-28 0:24:11.980000000000018,74.0741
2013-08-28 0:24:12.789999999999964,74.0741
2013-08-28 0:24:13.599999999999909,75
2013-08-28 0:24:14.400000000000091,75
2013-08-28 0:24:15.200000000000045,75
2013-08-28 0:24:16.0,75
2013-08-28 0:24:16.799999999999955,75
2013-08-28 0:24:17.599999999999909,75
2013-08-28 0:24:18.400000000000091,75
2013-08-28 0:24:19.200000000000045,75
2013-08-28 0:24:20.0,75.9494
2013-08-28 0:24:20.789999999999964,75
2013-08-28 0:24:21.589999999999918,75.9494
2013-08-28 0:24:22.380000000000109,75.9494
2013-08-28 0:24:23.170000000000073,75.9494
2013-08-28 0:24:23.960000000000036,75.9494
2013-08-28 0:24:24.75,74.0741
2013-08-28 0:24:25.559999999999945,75
2013-08-28 0:24:26.3599999999999,75
2013-08-28 0:24:27.160000000000082,74.0741
2013-08-28 0:24:27.970000000000027,75
2013-08-28 0:24:28.769999999999982,74.0741
2013-08-28 0:24:29.579999999999927,74.0741
2013-08-28 0:24:30.3900000000001,73.1707
2013-08-28 0:24:31.210000000000036,73.1707
2013-08-28 0:24:32.029999999999973,72.2892
2013-08-28 0:24:32.8599999999999,73.1707
2013-08-28 0:24:33.680000000000064,73.1707
2013-08-28 0:24:34.5,73.1707
2013-08-28 0:24:35.319999999999936,74.0741
2013-08-28 0:24:36.130000000000109,74.0741
2013-08-28 0:24:36.940000000000055,73.1707
2013-08-28 0:24:37.759999999999991,74.0741
2013-08-28 0:24:38.569999999999936,75
2013-08-28 0:24:39.369999999999891,75.9494
2013-08-28 0:24:40.160000000000082,75
2013-08-28 0:24:40.960000000000036,75.9494
2013-08-28 0:24:41.75,76.9231
2013-08-28 0:24:42.529999999999973,76.9231
2013-08-28 0:24:43.309999999999945,76.9231
2013-08-28 0:24:44.089999999999918,77.9221
2013-08-28 0:24:44.8599999999999,77.9221
2013-08-28 0:24:45.630000000000109,78.9474
2013-08-28 0:24:46.3900000000001,77.9221
2013-08-28 0:24:47.160000000000082,78.9474
2013-08-28 0:24:47.920000000000073,77.9221
2013-08-28 0:24:48.690000000000055,75.9494
2013-08-28 0:24:49.480000000000018,77.9221
2013-08-28 0:24:50.25,75.9494
2013-08-28 0:24:51.039999999999964,75.9494
2013-08-28 0:24:51.829999999999927,75
2013-08-28 0:24:52.630000000000109,74.0741
2013-08-28 0:24:53.440000000000055,75
2013-08-28 0:24:54.240000000000009,75.9494
2013-08-28 0:24:55.029999999999973,75
2013-08-28 0:24:55.829999999999927,75.9494
2013-08-28 0:24:56.619999999999891,75.9494
2013-08-28 0:24:57.410000000000082,76.9231
2013-08-28 0:24:58.190000000000055,77.9221
2013-08-28 0:24:58.960000000000036,77.9221
2013-08-28 0:24:59.730000000000018,78.9474
2013-08-28 0:25:0.49000000000000909,78.9474
2013-08-28 0:25:1.25,78.9474
2013-08-28 0:25:2.0099999999999909,78.9474
2013-08-28 0:25:2.7699999999999818,80
2013-08-28 0:25:3.5199999999999818,80
2013-08-28 0:25:4.2699999999999818,80
2013-08-28 0:25:5.0199999999999818,80
2013-08-28 0:25:5.7699999999999818,81.0811
2013-08-28 0:25:6.5099999999999909,80
2013-08-28 0:25:7.2599999999999909,80
2013-08-28 0:25:8.0099999999999909,80
2013-08-28 0:25:8.7599999999999909,78.9474
2013-08-28 0:25:11.789999999999964,80
2013-08-28 0:25:12.539999999999964,81.0811
2013-08-28 0:25:13.279999999999973,82.1918
2013-08-28 0:25:14.009999999999991,81.0811
2013-08-28 0:25:14.75,82.1918
2013-08-28 0:25:15.480000000000018,82.1918
2013-08-28 0:25:16.210000000000036,81.0811
2013-08-28 0:25:16.950000000000045,81.0811
2013-08-28 0:25:17.690000000000055,80
2013-08-28 0:25:18.440000000000055,80
2013-08-28 0:25:19.190000000000055,78.9474
2013-08-28 0:25:19.950000000000045,80
2013-08-28 0:25:20.700000000000045,78.9474
2013-08-28 0:25:21.460000000000036,78.9474
2013-08-28 0:25:22.220000000000027,78.9474
2013-08-28 0:25:22.980000000000018,78.9474
2013-08-28 0:25:23.740000000000009,78.9474
2013-08-28 0:25:24.5,77.9221
2013-08-28 0:25:25.269999999999982,76.9231
2013-08-28 0:25:26.049999999999955,75.9494
2013-08-28 0:25:26.839999999999918,75.9494
2013-08-28 0:25:27.630000000000109,75
2013-08-28 0:25:28.430000000000064,75
2013-08-28 0:25:29.230000000000018,73.1707
2013-08-28 0:25:30.049999999999955,74.0741
2013-08-28 0:25:30.8599999999999,73.1707
2013-08-28 0:25:31.680000000000064,73.1707
2013-08-28 0:25:32.5,72.2892
2013-08-28 0:25:33.329999999999927,73.1707
2013-08-28 0:25:34.150000000000091,73.1707
2013-08-28 0:25:34.970000000000027,74.0741
2013-08-28 0:25:35.779999999999973,74.0741
2013-08-28 0:25:36.589999999999918,74.0741
2013-08-28 0:25:37.400000000000091,75
2013-08-28 0:25:38.200000000000045,74.0741
2013-08-28 0:25:39.009999999999991,75
2013-08-28 0:25:39.809999999999945,75
2013-08-28 0:25:40.6099999999999,75
2013-08-28 0:25:41.410000000000082,74.0741
2013-08-28 0:25:42.220000000000027,75
2013-08-28 0:25:43.019999999999982,73.1707
2013-08-28 0:25:43.839999999999918,75
2013-08-28 0:25:44.6400000000001,74.0741
2013-08-28 0:25:45.450000000000045,74.0741
2013-08-28 0:25:46.259999999999991,75
2013-08-28 0:25:47.059999999999945,75
2013-08-28 0:25:47.8599999999999,75
2013-08-28 0:25:48.660000000000082,75.9494
2013-08-28 0:25:49.450000000000045,75.9494
2013-08-28 0:25:50.240000000000009,75.9494
2013-08-28 0:25:51.029999999999973,75.9494
2013-08-28 0:25:51.819999999999936,75.9494
2013-08-28 0:25:52.6099999999999,75.9494
2013-08-28 0:25:53.400000000000091,75.9494
2013-08-28 0:25:54.190000000000055,76.9231
2013-08-28 0:25:54.970000000000027,76.9231
2013-08-28 0:25:55.75,76.9231
2013-08-28 0:25:56.529999999999973,76.9231
2013-08-28 0:25:57.309999999999945,77.9221
2013-08-28 0:25:58.079999999999927,77.9221
2013-08-28 0:25:58.849999999999909,77.9221
2013-08-28 0:25:59.619999999999891,77.9221
2013-08-28 0:26:0.39000000000010004,76.9231
2013-08-28 0:26:1.1700000000000728,76.9231
2013-08-28 0:26:1.9500000000000455,76.9231
2013-08-28 0:26:2.7300000000000182,75.9494
2013-08-28 0:26:3.5199999999999818,75.9494
2013-08-28 0:26:4.3099999999999454,75
2013-08-28 0:26:5.1099999999999,75
2013-08-28 0:26:5.9100000000000819,75
2013-08-28 0:26:6.7100000000000364,74.0741
2013-08-28 0:26:7.5199999999999818,74.0741
2013-08-28 0:26:8.3299999999999272,73.1707
2013-08-28 0:26:9.1500000000000909,74.0741
2013-08-28 0:26:9.9600000000000364,74.0741
2013-08-28 0:26:10.769999999999982,75
2013-08-28 0:26:11.569999999999936,74.0741
2013-08-28 0:26:12.380000000000109,75.9494
2013-08-28 0:26:13.170000000000073,75.9494
2013-08-28 0:26:13.960000000000036,76.9231
2013-08-28 0:26:14.740000000000009,76.9231
2013-08-28 0:26:15.519999999999982,75.9494
2013-08-28 0:26:16.309999999999945,76.9231
2013-08-28 0:26:17.089999999999918,75.9494
2013-08-28 0:26:17.880000000000109,75.9494
2013-08-28 0:26:18.670000000000073,76.9231
2013-08-28 0:26:19.450000000000045,76.9231
2013-08-28 0:26:20.230000000000018,75
2013-08-28 0:26:21.029999999999973,75.9494
2013-08-28 0:26:21.819999999999936,75.9494
2013-08-28 0:26:22.6099999999999,75
2013-08-28 0:26:23.410000000000082,75
2013-08-28 0:26:24.210000000000036,76.9231
2013-08-28 0:26:24.990000000000009,76.9231
2013-08-28 0:26:25.769999999999982,77.9221
2013-08-28 0:26:26.539999999999964,77.9221
2013-08-28 0:26:27.309999999999945,77.9221
2013-08-28 0:26:28.079999999999927,77.9221
2013-08-28 0:26:28.849999999999909,78.9474
2013-08-28 0:26:29.6099999999999,78.9474
2013-08-28 0:26:30.369999999999891,76.9231
2013-08-28 0:26:31.150000000000091,77.9221
2013-08-28 0:26:31.920000000000073,75
2013-08-28 0:26:32.720000000000027,75.9494
2013-08-28 0:26:33.509999999999991,75
2013-08-28 0:26:34.309999999999945,74.0741
2013-08-28 0:26:35.119999999999891,74.0741
2013-08-28 0:26:35.930000000000064,73.1707
2013-08-28 0:26:36.75,73.1707
2013-08-28 0:26:37.569999999999936,72.2892
2013-08-28 0:26:38.400000000000091,72.2892
2013-08-28 0:26:39.230000000000018,73.1707
2013-08-28 0:26:40.049999999999955,71.4286
2013-08-28 0:26:40.8900000000001,72.2892
2013-08-28 0:26:41.720000000000027,72.2892
2013-08-28 0:26:42.549999999999955,73.1707
2013-08-28 0:26:43.369999999999891,73.1707
2013-08-28 0:26:44.190000000000055,73.1707
2013-08-28 0:26:45.009999999999991,73.1707
2013-08-28 0:26:45.829999999999927,73.1707
2013-08-28 0:26:46.650000000000091,74.0741
2013-08-28 0:26:47.460000000000036,73.1707
2013-08-28 0:26:48.279999999999973,72.2892
2013-08-28 0:26:49.1099999999999,73.1707
2013-08-28 0:26:49.930000000000064,74.0741
2013-08-28 0:26:50.740000000000009,75
2013-08-28 0:26:51.539999999999964,74.0741
2013-08-28 0:26:52.349999999999909,75
2013-08-28 0:26:53.150000000000091,74.0741
2013-08-28 0:26:53.960000000000036,75
2013-08-28 0:26:54.759999999999991,75
2013-08-28 0:26:55.559999999999945,75
2013-08-28 0:26:56.3599999999999,75
2013-08-28 0:26:57.160000000000082,74.0741
2013-08-28 0:26:57.970000000000027,75.9494
2013-08-28 0:26:58.759999999999991,75.9494
2013-08-28 0:27:1.1300000000001091,77.9221
2013-08-28 0:27:1.9000000000000909,77.9221
2013-08-28 0:27:2.6700000000000728,76.9231
2013-08-28 0:27:3.4500000000000455,77.9221
2013-08-28 0:27:4.2200000000000273,76.9231
2013-08-28 0:27:5.0,77.9221
2013-08-28 0:27:5.7699999999999818,78.9474
2013-08-28 0:27:6.5299999999999727,77.9221
2013-08-28 0:27:7.2999999999999545,78.9474
2013-08-28 0:27:8.0599999999999454,78.9474
2013-08-28 0:27:8.8199999999999363,78.9474
2013-08-28 0:27:9.5799999999999272,77.9221
2013-08-28 0:27:10.349999999999909,76.9231
2013-08-28 0:27:11.130000000000109,76.9231
2013-08-28 0:27:11.910000000000082,76.9231
2013-08-28 0:27:12.690000000000055,75.9494
2013-08-28 0:27:13.480000000000018,75
2013-08-28 0:27:14.279999999999973,75
2013-08-28 0:27:15.079999999999927,74.0741
2013-08-28 0:27:15.8900000000001,75
2013-08-28 0:27:16.690000000000055,78.9474
2013-08-28 0:27:17.450000000000045,78.9474
2013-08-28 0:27:18.210000000000036,86.9565
2013-08-28 0:27:20.539999999999964,80
2013-08-28 0:27:21.289999999999964,80
2013-08-28 0:27:22.039999999999964,82.1918
2013-08-28 0:27:22.769999999999982,82.1918
2013-08-28 0:27:23.5,84.507
2013-08-28 0:27:24.210000000000036,84.507
2013-08-28 0:27:24.920000000000073,84.507
2013-08-28 0:27:25.630000000000109,85.7143
2013-08-28 0:27:26.329999999999927,85.7143
2013-08-28 0:27:27.029999999999973,85.7143
2013-08-28 0:27:29.8599999999999,83.3333
2013-08-28 0:27:32.759999999999991,83.3333
2013-08-28 0:27:33.480000000000018,81.0811
2013-08-28 0:27:34.220000000000027,81.0811
2013-08-28 0:27:34.960000000000036,80
2013-08-28 0:27:35.710000000000036,80
2013-08-28 0:27:36.460000000000036,76.9231
2013-08-28 0:27:37.240000000000009,75
2013-08-28 0:27:38.039999999999964,74.0741
2013-08-28 0:27:38.849999999999909,74.0741
2013-08-28 0:27:39.660000000000082,72.2892
2013-08-28 0:27:40.490000000000009,72.2892
2013-08-28 0:27:41.319999999999936,72.2892
2013-08-28 0:27:42.150000000000091,72.2892
2013-08-28 0:27:42.980000000000018,72.2892
2013-08-28 0:27:43.809999999999945,72.2892
2013-08-28 0:27:44.6400000000001,71.4286
2013-08-28 0:27:45.480000000000018,73.1707
2013-08-28 0:27:46.299999999999955,73.1707
2013-08-28 0:27:47.119999999999891,74.0741
2013-08-28 0:27:47.930000000000064,74.0741
2013-08-28 0:27:48.740000000000009,74.0741
2013-08-28 0:27:49.549999999999955,74.0741
2013-08-28 0:27:50.3599999999999,75
2013-08-28 0:27:51.160000000000082,75
2013-08-28 0:27:51.960000000000036,75
2013-08-28 0:27:52.759999999999991,75
2013-08-28 0:27:53.559999999999945,75
2013-08-28 0:27:54.3599999999999,75.9494
2013-08-28 0:27:55.150000000000091,76.9231
2013-08-28 0:27:55.930000000000064,75.9494
2013-08-28 0:27:56.720000000000027,75
2013-08-28 0:27:57.519999999999982,75.9494
2013-08-28 0:27:58.309999999999945,75.9494
2013-08-28 0:27:59.099999999999909,76.9231
2013-08-28 0:27:59.880000000000109,75.9494
2013-08-28 0:28:0.67000000000007276,75.9494
2013-08-28 0:28:1.4600000000000364,76.9231
2013-08-28 0:28:2.2400000000000091,75.9494
2013-08-28 0:28:3.0299999999999727,75.9494
2013-08-28 0:28:3.8199999999999363,77.9221
2013-08-28 0:28:4.5899999999999181,77.9221
2013-08-28 0:28:5.3599999999999,77.9221
2013-08-28 0:28:6.1300000000001091,78.9474
2013-08-28 0:28:6.8900000000001,80
2013-08-28 0:28:7.6400000000001,80
2013-08-28 0:28:8.3900000000001,78.9474
2013-08-28 0:28:9.1500000000000909,80
2013-08-28 0:28:9.9000000000000909,80
2013-08-28 0:28:10.650000000000091,80
2013-08-28 0:28:11.400000000000091,78.9474
2013-08-28 0:28:12.160000000000082,80
2013-08-28 0:28:12.910000000000082,80
2013-08-28 0:28:13.660000000000082,78.9474
2013-08-28 0:28:14.420000000000073,77.9221
2013-08-28 0:28:15.190000000000055,78.9474
2013-08-28 0:28:15.950000000000045,77.9221
2013-08-28 0:28:16.720000000000027,77.9221
2013-08-28 0:28:17.490000000000009,75.9494
2013-08-28 0:28:18.279999999999973,75
2013-08-28 0:28:19.079999999999927,75
2013-08-28 0:28:19.880000000000109,75
2013-08-28 0:28:20.680000000000064,74.0741
2013-08-28 0:28:21.490000000000009,74.0741
2013-08-28 0:28:22.299999999999955,73.1707
2013-08-28 0:28:23.119999999999891,74.0741
2013-08-28 0:28:23.930000000000064,73.1707
2013-08-28 0:28:24.75,72.2892
2013-08-28 0:28:25.579999999999927,71.4286
2013-08-28 0:28:26.420000000000073,71.4286
2013-08-28 0:28:27.259999999999991,72.2892
2013-08-28 0:28:28.089999999999918,72.2892
2013-08-28 0:28:28.920000000000073,71.4286
2013-08-28 0:28:29.759999999999991,72.2892
2013-08-28 0:28:30.589999999999918,73.1707
2013-08-28 0:28:31.410000000000082,73.1707
2013-08-28 0:28:32.230000000000018,73.1707
2013-08-28 0:28:33.049999999999955,72.2892
2013-08-28 0:28:33.880000000000109,72.2892
2013-08-28 0:28:34.710000000000036,71.4286
2013-08-28 0:28:35.549999999999955,72.2892
2013-08-28 0:28:36.380000000000109,71.4286
2013-08-28 0:28:37.220000000000027,71.4286
2013-08-28 0:28:38.059999999999945,71.4286
2013-08-28 0:28:38.900000000000091,70.5882
2013-08-28 0:28:39.75,70.5882
2013-08-28 0:28:40.599999999999909,68.9655
2013-08-28 0:28:41.470000000000027,68.9655
2013-08-28 0:28:42.339999999999918,68.1818
2013-08-28 0:28:43.220000000000027,68.9655
2013-08-28 0:28:44.089999999999918,69.7674
2013-08-28 0:28:44.950000000000045,67.4157
2013-08-28 0:28:45.839999999999918,68.1818
2013-08-28 0:28:46.720000000000027,68.9655
2013-08-28 0:28:47.589999999999918,69.7674
2013-08-28 0:28:48.450000000000045,68.9655
2013-08-28 0:28:49.319999999999936,69.7674
2013-08-28 0:28:50.180000000000064,69.7674
2013-08-28 0:28:51.039999999999964,70.5882
2013-08-28 0:28:51.8900000000001,69.7674
2013-08-28 0:28:52.75,70.5882
2013-08-28 0:28:53.599999999999909,70.5882
2013-08-28 0:28:54.450000000000045,69.7674
2013-08-28 0:28:55.309999999999945,69.7674
2013-08-28 0:28:56.170000000000073,69.7674
2013-08-28 0:28:57.029999999999973,68.9655
2013-08-28 0:28:57.900000000000091,68.9655
2013-08-28 0:28:58.769999999999982,68.9655
2013-08-28 0:28:59.6400000000001,69.7674
2013-08-28 0:29:0.5,68.9655
2013-08-28 0:29:1.3699999999998909,69.7674
2013-08-28 0:29:2.2300000000000182,70.5882
2013-08-28 0:29:3.0799999999999272,70.5882
2013-08-28 0:29:3.9300000000000637,71.4286
2013-08-28 0:29:4.7699999999999818,71.4286
2013-08-28 0:29:5.6099999999999,70.5882
2013-08-28 0:29:6.4600000000000364,70.5882
2013-08-28 0:29:7.3099999999999454,71.4286
2013-08-28 0:29:8.1500000000000909,70.5882
2013-08-28 0:29:9.0,70.5882
2013-08-28 0:29:9.8499999999999091,70.5882
2013-08-28 0:29:10.700000000000045,70.5882
2013-08-28 0:29:11.549999999999955,70.5882
2013-08-28 0:29:12.400000000000091,70.5882
2013-08-28 0:29:13.25,70.5882
2013-08-28 0:29:14.099999999999909,70.5882
2013-08-28 0:29:14.950000000000045,70.5882
2013-08-28 0:29:15.799999999999955,71.4286
2013-08-28 0:29:16.6400000000001,72.2892
2013-08-28 0:29:17.470000000000027,73.1707
2013-08-28 0:29:18.289999999999964,73.1707
2013-08-28 0:29:19.1099999999999,73.1707
2013-08-28 0:29:19.930000000000064,75
2013-08-28 0:29:20.730000000000018,74.0741
2013-08-28 0:29:21.539999999999964,74.0741
2013-08-28 0:29:22.349999999999909,74.0741
2013-08-28 0:29:23.160000000000082,73.1707
2013-08-28 0:29:23.980000000000018,73.1707
2013-08-28 0:29:24.799999999999955,73.1707
2013-08-28 0:29:25.619999999999891,72.2892
2013-08-28 0:29:26.450000000000045,71.4286
2013-08-28 0:29:27.289999999999964,70.5882
2013-08-28 0:29:28.1400000000001,70.5882
2013-08-28 0:29:28.990000000000009,70.5882
2013-08-28 0:29:29.839999999999918,69.7674
2013-08-28 0:29:30.700000000000045,68.9655
2013-08-28 0:29:31.569999999999936,69.7674
2013-08-28 0:29:32.430000000000064,70.5882
2013-08-28 0:29:33.279999999999973,69.7674
2013-08-28 0:29:34.1400000000001,70.5882
2013-08-28 0:29:34.990000000000009,68.9655
2013-08-28 0:29:35.8599999999999,69.7674
2013-08-28 0:29:36.720000000000027,68.1818
2013-08-28 0:29:37.599999999999909,68.1818
2013-08-28 0:29:38.480000000000018,68.9655
2013-08-28 0:29:39.349999999999909,69.7674
2013-08-28 0:29:40.210000000000036,71.4286
2013-08-28 0:29:41.049999999999955,72.2892
2013-08-28 0:29:41.880000000000109,74.0741
2013-08-28 0:29:42.690000000000055,74.0741
2013-08-28 0:29:43.5,74.0741
2013-08-28 0:29:44.309999999999945,75.9494
2013-08-28 0:29:45.099999999999909,75
2013-08-28 0:29:45.900000000000091,75
2013-08-28 0:29:46.700000000000045,74.0741
2013-08-28 0:29:47.509999999999991,74.0741
2013-08-28 0:29:48.319999999999936,73.1707
2013-08-28 0:29:49.1400000000001,74.0741
2013-08-28 0:29:49.950000000000045,71.4286
2013-08-28 0:29:50.789999999999964,72.2892
2013-08-28 0:29:51.619999999999891,71.4286
2013-08-28 0:29:52.460000000000036,71.4286
2013-08-28 0:29:53.299999999999955,70.5882
2013-08-28 0:29:54.150000000000091,71.4286
2013-08-28 0:29:54.990000000000009,69.7674
2013-08-28 0:29:55.849999999999909,69.7674
2013-08-28 0:29:56.710000000000036,70.5882
2013-08-28 0:29:57.559999999999945,71.4286
2013-08-28 0:29:58.400000000000091,70.5882
2013-08-28 0:29:59.25,71.4286
2013-08-28 0:30:0.089999999999918145,72.2892
2013-08-28 0:30:0.92000000000007276,73.1707
2013-08-28 0:30:1.7400000000000091,73.1707
2013-08-28 0:30:2.5599999999999454,72.2892
2013-08-28 0:30:3.3900000000001,73.1707
2013-08-28 0:30:4.2100000000000364,73.1707
2013-08-28 0:30:5.0299999999999727,73.1707
2013-08-28 0:30:5.8499999999999091,73.1707
2013-08-28 0:30:6.6700000000000728,71.4286
2013-08-28 0:30:7.5099999999999909,72.2892
2013-08-28 0:30:8.3399999999999181,72.2892
2013-08-28 0:30:9.1700000000000728,71.4286
2013-08-28 0:30:10.009999999999991,71.4286
2013-08-28 0:30:10.849999999999909,72.2892
2013-08-28 0:30:11.680000000000064,70.5882
2013-08-28 0:30:12.529999999999973,71.4286
2013-08-28 0:30:13.369999999999891,70.5882
2013-08-28 0:30:14.220000000000027,70.5882
2013-08-28 0:30:15.069999999999936,70.5882
2013-08-28 0:30:15.920000000000073,71.4286
2013-08-28 0:30:16.759999999999991,69.7674
2013-08-28 0:30:17.619999999999891,69.7674
2013-08-28 0:30:18.480000000000018,68.1818
2013-08-28 0:30:19.3599999999999,67.4157
2013-08-28 0:30:20.25,66.6667
2013-08-28 0:30:21.150000000000091,67.4157
2013-08-28 0:30:22.039999999999964,67.4157
2013-08-28 0:30:22.930000000000064,68.1818
2013-08-28 0:30:23.809999999999945,70.5882
2013-08-28 0:30:24.660000000000082,69.7674
2013-08-28 0:30:25.519999999999982,70.5882
2013-08-28 0:30:26.369999999999891,71.4286
2013-08-28 0:30:27.210000000000036,72.2892
2013-08-28 0:30:28.039999999999964,70.5882
2013-08-28 0:30:28.8900000000001,71.4286
2013-08-28 0:30:29.730000000000018,70.5882
2013-08-28 0:30:30.579999999999927,70.5882
2013-08-28 0:30:31.430000000000064,70.5882
2013-08-28 0:30:32.279999999999973,69.7674
2013-08-28 0:30:33.1400000000001,69.7674
2013-08-28 0:30:34.0,68.9655
2013-08-28 0:30:34.869999999999891,69.7674
2013-08-28 0:30:35.730000000000018,69.7674
2013-08-28 0:30:36.589999999999918,68.9655
2013-08-28 0:30:37.460000000000036,68.1818
2013-08-28 0:30:38.339999999999918,68.1818
2013-08-28 0:30:39.220000000000027,68.9655
2013-08-28 0:30:40.089999999999918,68.9655
2013-08-28 0:30:40.960000000000036,68.9655
2013-08-28 0:30:41.829999999999927,68.9655
2013-08-28 0:30:42.700000000000045,69.7674
2013-08-28 0:30:43.559999999999945,69.7674
2013-08-28 0:30:44.420000000000073,70.5882
2013-08-28 0:30:45.269999999999982,70.5882
2013-08-28 0:30:46.119999999999891,70.5882
2013-08-28 0:30:46.970000000000027,72.2892
2013-08-28 0:30:47.799999999999955,70.5882
2013-08-28 0:30:48.650000000000091,69.7674
2013-08-28 0:30:49.509999999999991,71.4286
2013-08-28 0:30:50.349999999999909,72.2892
2013-08-28 0:30:51.180000000000064,71.4286
2013-08-28 0:30:52.019999999999982,71.4286
2013-08-28 0:30:52.8599999999999,72.2892
2013-08-28 0:30:53.690000000000055,72.2892
2013-08-28 0:30:54.519999999999982,72.2892
2013-08-28 0:30:55.349999999999909,72.2892
2013-08-28 0:30:56.180000000000064,73.1707
2013-08-28 0:30:57.0,72.2892
2013-08-28 0:30:57.829999999999927,73.1707
2013-08-28 0:30:58.650000000000091,72.2892
2013-08-28 0:30:59.480000000000018,71.4286
2013-08-28 0:31:0.31999999999993634,71.4286
2013-08-28 0:31:1.1600000000000819,72.2892
2013-08-28 0:31:1.9900000000000091,72.2892
2013-08-28 0:31:2.8199999999999363,71.4286
2013-08-28 0:31:3.6600000000000819,71.4286
2013-08-28 0:31:4.5,71.4286
2013-08-28 0:31:5.3399999999999181,71.4286
2013-08-28 0:31:6.1800000000000637,71.4286
2013-08-28 0:31:7.0199999999999818,73.1707
2013-08-28 0:31:7.8399999999999181,74.0741
2013-08-28 0:31:8.6500000000000909,74.0741
2013-08-28 0:31:9.4600000000000364,73.1707
2013-08-28 0:31:10.279999999999973,73.1707
2013-08-28 0:31:11.099999999999909,74.0741
2013-08-28 0:31:11.910000000000082,74.0741
2013-08-28 0:31:12.720000000000027,73.1707
2013-08-28 0:31:13.539999999999964,73.1707
2013-08-28 0:31:14.3599999999999,73.1707
2013-08-28 0:31:15.180000000000064,73.1707
2013-08-28 0:31:16.0,73.1707
2013-08-28 0:31:16.819999999999936,71.4286
2013-08-28 0:31:17.660000000000082,72.2892
2013-08-28 0:31:18.490000000000009,71.4286
2013-08-28 0:31:19.329999999999927,70.5882
2013-08-28 0:31:20.180000000000064,69.7674
2013-08-28 0:31:21.039999999999964,68.9655
2013-08-28 0:31:21.910000000000082,69.7674
2013-08-28 0:31:22.769999999999982,69.7674
2013-08-28 0:31:23.630000000000109,68.1818
2013-08-28 0:31:24.509999999999991,68.9655
2013-08-28 0:31:25.380000000000109,68.1818
2013-08-28 0:31:26.259999999999991,68.1818
2013-08-28 0:31:27.1400000000001,68.1818
2013-08-28 0:31:28.019999999999982,66.6667
2013-08-28 0:31:28.920000000000073,66.6667
2013-08-28 0:31:29.819999999999936,65.9341
2013-08-28 0:31:30.730000000000018,67.4157
2013-08-28 0:31:31.619999999999891,69.7674
2013-08-28 0:31:32.480000000000018,70.5882
2013-08-28 0:31:33.329999999999927,72.2892
2013-08-28 0:31:34.160000000000082,73.1707
2013-08-28 0:31:34.980000000000018,74.0741
2013-08-28 0:31:35.789999999999964,74.0741
2013-08-28 0:31:36.599999999999909,74.0741
2013-08-28 0:31:37.410000000000082,75
2013-08-28 0:31:38.210000000000036,75
2013-08-28 0:31:39.009999999999991,74.0741
2013-08-28 0:31:39.819999999999936,72.2892
2013-08-28 0:31:40.650000000000091,71.4286
2013-08-28 0:31:41.490000000000009,70.5882
2013-08-28 0:31:42.339999999999918,70.5882
2013-08-28 0:31:43.190000000000055,69.7674
2013-08-28 0:31:45.720000000000027,73.1707
2013-08-28 0:31:46.539999999999964,74.0741
2013-08-28 0:31:47.349999999999909,74.0741
2013-08-28 0:31:48.160000000000082,75.9494
2013-08-28 0:31:48.950000000000045,73.1707
2013-08-28 0:31:49.769999999999982,75
2013-08-28 0:31:50.569999999999936,75
2013-08-28 0:31:51.369999999999891,75.9494
2013-08-28 0:31:52.160000000000082,74.0741
2013-08-28 0:31:52.970000000000027,75
2013-08-28 0:31:53.769999999999982,74.0741
2013-08-28 0:31:54.579999999999927,75
2013-08-28 0:31:55.380000000000109,74.0741
2013-08-28 0:31:56.190000000000055,71.4286
2013-08-28 0:31:57.029999999999973,70.5882
2013-08-28 0:31:57.880000000000109,70.5882
2013-08-28 0:31:58.730000000000018,70.5882
2013-08-28 0:31:59.579999999999927,70.5882
2013-08-28 0:32:0.43000000000006366,68.9655
2013-08-28 0:32:1.2999999999999545,69.7674
2013-08-28 0:32:2.1600000000000819,68.9655
2013-08-28 0:32:3.0299999999999727,68.9655
2013-08-28 0:32:3.9000000000000909,68.1818
2013-08-28 0:32:4.7799999999999727,68.9655
2013-08-28 0:32:5.6500000000000909,68.9655
2013-08-28 0:32:6.5199999999999818,68.1818
2013-08-28 0:32:7.4000000000000909,68.1818
2013-08-28 0:32:8.2799999999999727,68.9655
2013-08-28 0:32:9.1500000000000909,68.9655
2013-08-28 0:32:10.019999999999982,68.1818
2013-08-28 0:32:10.900000000000091,68.1818
2013-08-28 0:32:11.779999999999973,68.9655
2013-08-28 0:32:12.650000000000091,69.7674
2013-08-28 0:32:13.509999999999991,68.9655
2013-08-28 0:32:14.380000000000109,68.9655
2013-08-28 0:32:15.25,69.7674
2013-08-28 0:32:16.1099999999999,70.5882
2013-08-28 0:32:16.960000000000036,68.9655
2013-08-28 0:32:17.829999999999927,69.7674
2013-08-28 0:32:18.690000000000055,69.7674
2013-08-28 0:32:19.549999999999955,69.7674
2013-08-28 0:32:20.410000000000082,69.7674
2013-08-28 0:32:21.269999999999982,68.1818
2013-08-28 0:32:22.150000000000091,68.9655
2013-08-28 0:32:23.019999999999982,69.7674
2013-08-28 0:32:23.880000000000109,68.1818
2013-08-28 0:32:24.759999999999991,68.9655
2013-08-28 0:32:25.630000000000109,69.7674
2013-08-28 0:32:26.490000000000009,68.9655
2013-08-28 0:32:27.3599999999999,69.7674
2013-08-28 0:32:28.220000000000027,68.9655
2013-08-28 0:32:29.089999999999918,68.9655
2013-08-28 0:32:29.960000000000036,69.7674
2013-08-28 0:32:30.819999999999936,70.5882
2013-08-28 0:32:31.670000000000073,71.4286
2013-08-28 0:32:32.509999999999991,71.4286
2013-08-28 0:32:33.349999999999909,73.1707
2013-08-28 0:32:34.170000000000073,72.2892
2013-08-28 0:32:35.0,71.4286
2013-08-28 0:32:35.839999999999918,71.4286
2013-08-28 0:32:36.680000000000064,70.5882
2013-08-28 0:32:37.529999999999973,70.5882
2013-08-28 0:32:38.380000000000109,70.5882
2013-08-28 0:32:39.230000000000018,69.7674
2013-08-28 0:32:40.089999999999918,68.9655
2013-08-28 0:32:40.960000000000036,68.9655
2013-08-28 0:32:41.829999999999927,69.7674
2013-08-28 0:32:42.690000000000055,68.9655
2013-08-28 0:32:43.559999999999945,68.9655
2013-08-28 0:32:44.430000000000064,68.1818
2013-08-28 0:32:45.309999999999945,68.9655
2013-08-28 0:32:46.180000000000064,70.5882
2013-08-28 0:32:47.029999999999973,70.5882
2013-08-28 0:32:47.880000000000109,69.7674
2013-08-28 0:32:48.740000000000009,72.2892
2013-08-28 0:32:49.569999999999936,71.4286
2013-08-28 0:32:50.410000000000082,71.4286
2013-08-28 0:32:51.25,71.4286
2013-08-28 0:32:52.089999999999918,72.2892
2013-08-28 0:32:52.920000000000073,73.1707
2013-08-28 0:32:53.740000000000009,72.2892
2013-08-28 0:32:54.569999999999936,72.2892
2013-08-28 0:32:55.400000000000091,73.1707
2013-08-28 0:32:56.220000000000027,72.2892
2013-08-28 0:32:57.049999999999955,72.2892
2013-08-28 0:32:57.880000000000109,70.5882
2013-08-28 0:32:58.730000000000018,69.7674
2013-08-28 0:32:59.589999999999918,69.7674
2013-08-28 0:33:0.45000000000004547,69.7674
2013-08-28 0:33:1.3099999999999454,68.1818
2013-08-28 0:33:2.1900000000000546,65.9341
2013-08-28 0:33:3.0999999999999091,65.9341
2013-08-28 0:33:4.0099999999999909,66.6667
2013-08-28 0:33:4.9100000000000819,67.4157
2013-08-28 0:33:5.7999999999999545,65.9341
2013-08-28 0:33:6.7100000000000364,67.4157
2013-08-28 0:33:7.5999999999999091,67.4157
2013-08-28 0:33:8.4900000000000091,67.4157
2013-08-28 0:33:9.3800000000001091,68.1818
2013-08-28 0:33:10.259999999999991,66.6667
2013-08-28 0:33:11.160000000000082,68.1818
2013-08-28 0:33:12.039999999999964,67.4157
2013-08-28 0:33:12.930000000000064,68.1818
2013-08-28 0:33:13.809999999999945,68.1818
2013-08-28 0:33:14.690000000000055,68.9655
2013-08-28 0:33:15.559999999999945,70.5882
2013-08-28 0:33:16.410000000000082,70.5882
2013-08-28 0:33:17.259999999999991,70.5882
2013-08-28 0:33:18.1099999999999,68.9655
2013-08-28 0:33:18.980000000000018,69.7674
2013-08-28 0:33:19.839999999999918,67.4157
2013-08-28 0:33:20.730000000000018,68.9655
2013-08-28 0:33:21.599999999999909,68.1818
2013-08-28 0:33:22.480000000000018,68.1818
2013-08-28 0:33:23.3599999999999,68.1818
2013-08-28 0:33:24.240000000000009,67.4157
2013-08-28 0:33:25.130000000000109,68.9655
2013-08-28 0:33:26.0,68.9655
2013-08-28 0:33:26.869999999999891,68.9655
2013-08-28 0:33:27.740000000000009,69.7674
2013-08-28 0:33:28.599999999999909,69.7674
2013-08-28 0:33:29.460000000000036,71.4286
2013-08-28 0:33:30.299999999999955,71.4286
2013-08-28 0:33:31.1400000000001,70.5882
2013-08-28 0:33:31.990000000000009,70.5882
2013-08-28 0:33:32.839999999999918,70.5882
2013-08-28 0:33:33.690000000000055,70.5882
2013-08-28 0:33:34.539999999999964,70.5882
2013-08-28 0:33:35.3900000000001,69.7674
2013-08-28 0:33:36.25,68.9655
2013-08-28 0:33:37.119999999999891,68.9655
2013-08-28 0:33:37.990000000000009,69.7674
2013-08-28 0:33:38.849999999999909,69.7674
2013-08-28 0:33:39.710000000000036,69.7674
2013-08-28 0:33:40.569999999999936,70.5882
2013-08-28 0:33:41.420000000000073,69.7674
2013-08-28 0:33:42.279999999999973,69.7674
2013-08-28 0:33:43.1400000000001,69.7674
2013-08-28 0:33:44.0,68.9655
2013-08-28 0:33:44.869999999999891,68.9655
2013-08-28 0:33:45.740000000000009,69.7674
2013-08-28 0:33:46.599999999999909,68.9655
2013-08-28 0:33:47.470000000000027,68.9655
2013-08-28 0:33:48.339999999999918,68.9655
2013-08-28 0:33:49.210000000000036,69.7674
2013-08-28 0:33:50.069999999999936,69.7674
2013-08-28 0:33:50.930000000000064,69.7674
2013-08-28 0:33:51.789999999999964,68.9655
2013-08-28 0:33:52.660000000000082,68.1818
2013-08-28 0:33:53.539999999999964,68.9655
2013-08-28 0:33:54.410000000000082,68.1818
2013-08-28 0:33:55.289999999999964,68.1818
2013-08-28 0:33:56.170000000000073,68.1818
2013-08-28 0:33:57.049999999999955,70.5882
2013-08-28 0:33:57.900000000000091,71.4286
2013-08-28 0:33:58.740000000000009,73.1707
2013-08-28 0:33:59.559999999999945,72.2892
2013-08-28 0:34:0.39000000000010004,72.2892
2013-08-28 0:34:1.2200000000000273,72.2892
2013-08-28 0:34:2.0499999999999545,72.2892
2013-08-28 0:34:2.8800000000001091,70.5882
2013-08-28 0:34:3.7300000000000182,68.9655
2013-08-28 0:34:4.5999999999999091,68.9655
2013-08-28 0:34:5.4700000000000273,68.1818
2013-08-28 0:34:6.3499999999999091,67.4157
2013-08-28 0:34:7.2400000000000091,68.1818
2013-08-28 0:34:8.1199999999998909,66.6667
2013-08-28 0:34:9.0199999999999818,67.4157
2013-08-28 0:34:9.9099999999998545,67.4157
2013-08-28 0:34:10.800000000000182,67.4157
2013-08-28 0:34:11.690000000000055,67.4157
2013-08-28 0:34:12.579999999999927,66.6667
2013-08-28 0:34:13.480000000000018,66.6667
2013-08-28 0:34:14.380000000000109,67.4157
2013-08-28 0:34:15.269999999999982,68.1818
2013-08-28 0:34:16.150000000000091,69.7674
2013-08-28 0:34:17.010000000000218,69.7674
2013-08-28 0:34:17.869999999999891,70.5882
2013-08-28 0:34:18.7199999999998,72.2892
2013-08-28 0:34:19.550000000000182,71.4286
2013-08-28 0:34:20.389999999999873,71.4286
2013-08-28 0:34:21.230000000000018,70.5882
2013-08-28 0:34:22.079999999999927,70.5882
2013-08-28 0:34:22.929999999999836,70.5882
2013-08-28 0:34:23.7800000000002,69.7674
2013-08-28 0:34:24.639999999999873,69.7674
2013-08-28 0:34:25.5,69.7674
2013-08-28 0:34:26.360000000000127,70.5882
2013-08-28 0:34:27.210000000000036,69.7674
2013-08-28 0:34:28.070000000000164,68.9655
2013-08-28 0:34:28.940000000000055,68.1818
2013-08-28 0:34:29.820000000000164,68.1818
2013-08-28 0:34:30.699999999999818,66.6667
2013-08-28 0:34:31.599999999999909,65.9341
2013-08-28 0:34:32.510000000000218,65.9341
2013-08-28 0:34:33.420000000000073,65.2174
2013-08-28 0:34:34.340000000000146,65.9341
2013-08-28 0:34:35.25,65.2174
2013-08-28 0:34:36.170000000000073,65.2174
2013-08-28 0:34:37.090000000000146,64.5161
2013-08-28 0:34:38.019999999999982,65.2174
2013-08-28 0:34:38.940000000000055,65.9341
2013-08-28 0:34:39.849999999999909,67.4157
2013-08-28 0:34:40.739999999999782,68.1818
2013-08-28 0:34:41.619999999999891,69.7674
2013-08-28 0:34:42.480000000000018,70.5882
2013-08-28 0:34:43.329999999999927,68.1818
2013-08-28 0:34:44.210000000000036,71.4286
2013-08-28 0:34:45.050000000000182,71.4286
2013-08-28 0:34:45.889999999999873,71.4286
2013-08-28 0:34:46.730000000000018,71.4286
2013-08-28 0:34:47.570000000000164,71.4286
2013-08-28 0:34:48.409999999999854,70.5882
2013-08-28 0:34:49.260000000000218,68.9655
2013-08-28 0:34:50.130000000000109,68.9655
2013-08-28 0:34:51.0,67.4157
2013-08-28 0:34:51.889999999999873,67.4157
2013-08-28 0:34:52.7800000000002,65.9341
2013-08-28 0:34:53.690000000000055,64.5161
2013-08-28 0:34:54.619999999999891,63.8298
2013-08-28 0:34:55.559999999999945,64.5161
2013-08-28 0:34:56.489999999999782,64.5161
2013-08-28 0:34:57.420000000000073,63.1579
2013-08-28 0:34:58.369999999999891,63.8298
2013-08-28 0:34:59.309999999999945,64.5161
2013-08-28 0:35:0.23999999999978172,65.9341
2013-08-28 0:35:1.1500000000000909,66.6667
2013-08-28 0:35:2.0500000000001819,67.4157
2013-08-28 0:35:2.9400000000000546,69.7674
2013-08-28 0:35:3.8000000000001819,70.5882
2013-08-28 0:35:4.6500000000000909,70.5882
2013-08-28 0:35:5.5,70.5882
2013-08-28 0:35:6.3499999999999091,71.4286
2013-08-28 0:35:7.1900000000000546,72.2892
2013-08-28 0:35:8.0199999999999818,70.5882
2013-08-28 0:35:8.8699999999998909,70.5882
2013-08-28 0:35:9.7199999999997999,70.5882
2013-08-28 0:35:10.570000000000164,68.9655
2013-08-28 0:35:11.440000000000055,67.4157
2013-08-28 0:35:12.329999999999927,65.9341
2013-08-28 0:35:13.239999999999782,66.6667
2013-08-28 0:35:14.139999999999873,66.6667
2013-08-28 0:35:15.039999999999964,65.2174
2013-08-28 0:35:15.960000000000036,66.6667
2013-08-28 0:35:16.860000000000127,65.9341
2013-08-28 0:35:17.769999999999982,65.9341
2013-08-28 0:35:18.679999999999836,65.2174
2013-08-28 0:35:19.599999999999909,66.6667
2013-08-28 0:35:20.5,65.2174
2013-08-28 0:35:21.420000000000073,65.9341
2013-08-28 0:35:22.329999999999927,68.9655
2013-08-28 0:35:23.199999999999818,69.7674
2013-08-28 0:35:24.059999999999945,70.5882
2013-08-28 0:35:24.909999999999854,69.7674
2013-08-28 0:35:25.769999999999982,72.2892
2013-08-28 0:35:26.599999999999909,73.1707
2013-08-28 0:35:27.420000000000073,71.4286
2013-08-28 0:35:28.260000000000218,73.1707
2013-08-28 0:35:29.079999999999927,73.1707
2013-08-28 0:35:29.900000000000091,74.0741
2013-08-28 0:35:30.710000000000036,72.2892
2013-08-28 0:35:31.539999999999964,73.1707
2013-08-28 0:35:32.360000000000127,73.1707
2013-08-28 0:35:33.179999999999836,72.2892
2013-08-28 0:35:34.010000000000218,74.0741
2013-08-28 0:35:34.820000000000164,71.4286
2013-08-28 0:35:35.659999999999854,73.1707
2013-08-28 0:35:36.480000000000018,74.0741
2013-08-28 0:35:37.289999999999964,73.1707
2013-08-28 0:35:40.590000000000146,72.2892
2013-08-28 0:35:41.420000000000073,73.1707
2013-08-28 0:35:42.239999999999782,73.1707
2013-08-28 0:35:43.059999999999945,73.1707
2013-08-28 0:35:43.880000000000109,73.1707
2013-08-28 0:35:44.699999999999818,73.1707
2013-08-28 0:35:45.519999999999982,72.2892
2013-08-28 0:35:46.349999999999909,72.2892
2013-08-28 0:35:47.179999999999836,71.4286
2013-08-28 0:35:48.019999999999982,70.5882
2013-08-28 0:35:48.869999999999891,69.7674
2013-08-28 0:35:49.730000000000018,67.4157
2013-08-28 0:35:50.619999999999891,66.6667
2013-08-28 0:35:51.519999999999982,65.2174
2013-08-28 0:35:52.440000000000055,65.2174
2013-08-28 0:35:53.360000000000127,65.2174
2013-08-28 0:35:54.2800000000002,63.1579
2013-08-28 0:35:55.230000000000018,62.5
2013-08-28 0:35:56.190000000000055,63.1579
2013-08-28 0:35:57.139999999999873,65.2174
2013-08-28 0:36:0.94000000000005457,65.9341
2013-08-28 0:36:1.8499999999999091,66.6667
2013-08-28 0:36:2.75,69.7674
2013-08-28 0:36:3.6100000000001273,71.4286
2013-08-28 0:36:4.4499999999998181,70.5882
2013-08-28 0:36:5.3000000000001819,72.2892
2013-08-28 0:36:6.1300000000001091,75
2013-08-28 0:36:6.9299999999998363,75
2013-08-28 0:36:7.7300000000000182,73.1707
2013-08-28 0:36:8.5500000000001819,74.0741
2013-08-28 0:36:9.3600000000001273,72.2892
2013-08-28 0:36:10.190000000000055,71.4286
2013-08-28 0:36:11.0300000000002,68.9655
2013-08-28 0:36:11.900000000000091,68.1818
2013-08-28 0:36:12.7800000000002,65.9341
2013-08-28 0:36:13.690000000000055,65.9341
2013-08-28 0:36:14.599999999999909,65.2174
2013-08-28 0:36:15.519999999999982,64.5161
2013-08-28 0:36:16.449999999999818,65.2174
2013-08-28 0:36:17.369999999999891,65.2174
2013-08-28 0:36:18.289999999999964,65.9341
2013-08-28 0:36:19.199999999999818,68.1818
2013-08-28 0:36:20.079999999999927,68.1818
2013-08-28 0:36:20.960000000000036,69.7674
2013-08-28 0:36:21.820000000000164,69.7674
2013-08-28 0:36:22.679999999999836,66.6667
2013-08-28 0:36:23.579999999999927,68.1818
2013-08-28 0:36:24.460000000000036,69.7674
2013-08-28 0:36:25.320000000000164,69.7674
2013-08-28 0:36:26.179999999999836,68.1818
2013-08-28 0:36:27.059999999999945,69.7674
2013-08-28 0:36:27.920000000000073,69.7674
2013-08-28 0:36:28.7800000000002,69.7674
2013-08-28 0:36:29.639999999999873,68.9655
2013-08-28 0:36:30.510000000000218,68.9655
2013-08-28 0:36:31.380000000000109,68.9655
2013-08-28 0:36:32.25,66.6667
2013-08-28 0:36:33.150000000000091,67.4157
2013-08-28 0:36:34.039999999999964,67.4157
2013-08-28 0:36:34.929999999999836,66.6667
2013-08-28 0:36:35.829999999999927,68.9655
2013-08-28 0:36:36.699999999999818,69.7674
2013-08-28 0:36:37.559999999999945,71.4286
2013-08-28 0:36:38.400000000000091,73.1707
2013-08-28 0:36:39.2199999999998,74.0741
2013-08-28 0:36:40.0300000000002,73.1707
2013-08-28 0:36:40.849999999999909,74.0741
2013-08-28 0:36:41.659999999999854,72.2892
2013-08-28 0:36:42.489999999999782,71.4286
2013-08-28 0:36:43.329999999999927,70.5882
2013-08-28 0:36:44.179999999999836,68.9655
2013-08-28 0:36:45.050000000000182,66.6667
2013-08-28 0:36:45.949999999999818,65.9341
2013-08-28 0:36:46.860000000000127,66.6667
2013-08-28 0:36:47.760000000000218,65.9341
2013-08-28 0:36:48.670000000000073,65.2174
2013-08-28 0:36:49.590000000000146,65.2174
2013-08-28 0:36:50.510000000000218,63.8298
2013-08-28 0:36:51.449999999999818,63.8298
2013-08-28 0:36:52.389999999999873,61.2245
2013-08-28 0:36:53.369999999999891,61.2245
2013-08-28 0:36:54.349999999999909,63.8298
2013-08-28 0:36:55.289999999999964,63.1579
2013-08-28 0:36:56.239999999999782,65.9341
2013-08-28 0:36:57.150000000000091,68.9655
2013-08-28 0:36:58.019999999999982,69.7674
2013-08-28 0:36:58.880000000000109,70.5882
2013-08-28 0:36:59.730000000000018,73.1707
2013-08-28 0:37:0.5500000000001819,74.0741
2013-08-28 0:37:1.3600000000001273,74.0741
2013-08-28 0:37:2.1700000000000728,75
2013-08-28 0:37:2.9699999999997999,76.9231
2013-08-28 0:37:3.75,76.9231
2013-08-28 0:37:4.5300000000002001,75
2013-08-28 0:37:5.3299999999999272,76.9231
2013-08-28 0:37:6.1100000000001273,75
2013-08-28 0:37:6.9099999999998545,75.9494
2013-08-28 0:37:7.6999999999998181,74.0741
2013-08-28 0:37:8.5100000000002183,74.0741
2013-08-28 0:37:9.3200000000001637,74.0741
2013-08-28 0:37:10.130000000000109,74.0741
2013-08-28 0:37:10.940000000000055,74.0741
2013-08-28 0:37:11.75,75.9494
2013-08-28 0:37:12.539999999999964,75.9494
2013-08-28 0:37:13.329999999999927,75.9494
2013-08-28 0:37:14.119999999999891,75.9494
2013-08-28 0:37:14.909999999999854,76.9231
2013-08-28 0:37:15.690000000000055,75.9494
2013-08-28 0:37:16.480000000000018,75
2013-08-28 0:37:17.2800000000002,74.0741
2013-08-28 0:37:18.090000000000146,73.1707
2013-08-28 0:37:18.909999999999854,73.1707
2013-08-28 0:37:19.730000000000018,72.2892
2013-08-28 0:37:20.559999999999945,72.2892
2013-08-28 0:37:31.590000000000146,66.6667
2013-08-28 0:37:32.489999999999782,66.6667
2013-08-28 0:37:33.389999999999873,67.4157
2013-08-28 0:37:34.2800000000002,65.9341
2013-08-28 0:37:35.190000000000055,65.2174
2013-08-28 0:37:36.110000000000127,65.2174
2013-08-28 0:37:37.0300000000002,63.8298
2013-08-28 0:37:37.9699999999998,63.8298
2013-08-28 0:37:38.909999999999854,62.5
2013-08-28 0:37:39.869999999999891,60
2013-08-28 0:37:40.869999999999891,59.4059
2013-08-28 0:37:41.880000000000109,61.2245
2013-08-28 0:37:42.860000000000127,64.5161
2013-08-28 0:37:43.789999999999964,63.8298
2013-08-28 0:37:44.730000000000018,64.5161
2013-08-28 0:37:45.659999999999854,67.4157
2013-08-28 0:37:46.550000000000182,68.1818
2013-08-28 0:37:47.429999999999836,68.9655
2013-08-28 0:37:48.300000000000182,71.4286
2013-08-28 0:37:49.139999999999873,72.2892
2013-08-28 0:37:49.9699999999998,72.2892
2013-08-28 0:37:50.800000000000182,72.2892
2013-08-28 0:37:51.630000000000109,72.2892
2013-08-28 0:37:52.460000000000036,72.2892
2013-08-28 0:37:53.289999999999964,70.5882
2013-08-28 0:37:54.139999999999873,68.9655
2013-08-28 0:37:55.010000000000218,68.1818
2013-08-28 0:37:55.889999999999873,66.6667
2013-08-28 0:37:56.789999999999964,66.6667
2013-08-28 0:37:57.690000000000055,64.5161
2013-08-28 0:37:58.619999999999891,64.5161
2013-08-28 0:37:59.550000000000182,65.2174
2013-08-28 0:38:0.46999999999979991,65.9341
2013-08-28 0:38:1.3800000000001091,64.5161
2013-08-28 0:38:2.3099999999999454,65.9341
2013-08-28 0:38:3.2199999999997999,66.6667
2013-08-28 0:38:4.1199999999998909,68.1818
2013-08-28 0:38:5.0,68.9655
2013-08-28 0:38:5.8699999999998909,68.1818
2013-08-28 0:38:6.75,68.9655
2013-08-28 0:38:7.6199999999998909,68.9655
2013-08-28 0:38:8.4899999999997817,68.9655
2013-08-28 0:38:9.3600000000001273,68.9655
2013-08-28 0:38:10.230000000000018,69.7674
2013-08-28 0:38:11.090000000000146,68.9655
2013-08-28 0:38:11.960000000000036,68.1818
2013-08-28 0:38:12.840000000000146,66.6667
2013-08-28 0:38:13.739999999999782,68.1818
2013-08-28 0:38:14.619999999999891,67.4157
2013-08-28 0:38:15.510000000000218,66.6667
2013-08-28 0:38:16.409999999999854,65.2174
2013-08-28 0:38:17.329999999999927,65.9341
2013-08-28 0:38:18.239999999999782,64.5161
2013-08-28 0:38:19.170000000000073,63.8298
2013-08-28 0:38:20.110000000000127,62.5
2013-08-28 0:38:21.070000000000164,63.1579
2013-08-28 0:38:22.019999999999982,63.8298
2013-08-28 0:38:22.960000000000036,65.2174
2013-08-28 0:38:23.880000000000109,65.9341
2013-08-28 0:38:24.789999999999964,67.4157
2013-08-28 0:38:25.679999999999836,68.1818
2013-08-28 0:38:26.559999999999945,68.9655
2013-08-28 0:38:27.429999999999836,68.1818
2013-08-28 0:38:28.309999999999945,68.1818
2013-08-28 0:38:29.190000000000055,68.9655
2013-08-28 0:38:30.059999999999945,68.1818
2013-08-28 0:38:30.940000000000055,68.1818
2013-08-28 0:38:31.820000000000164,68.1818
2013-08-28 0:38:32.699999999999818,67.4157
2013-08-28 0:38:33.590000000000146,67.4157
2013-08-28 0:38:34.480000000000018,67.4157
2013-08-28 0:38:35.369999999999891,66.6667
2013-08-28 0:38:36.269999999999982,66.6667
2013-08-28 0:38:37.170000000000073,64.5161
2013-08-28 0:38:38.099999999999909,65.2174
2013-08-28 0:38:39.019999999999982,64.5161
2013-08-28 0:38:39.949999999999818,64.5161
2013-08-28 0:38:40.880000000000109,63.1579
2013-08-28 0:38:41.829999999999927,63.1579
2013-08-28 0:38:42.7800000000002,64.5161
2013-08-28 0:38:43.710000000000036,63.8298
2013-08-28 0:38:44.650000000000091,66.6667
2013-08-28 0:38:45.550000000000182,68.9655
2013-08-28 0:38:46.420000000000073,68.1818
2013-08-28 0:38:47.300000000000182,70.5882
2013-08-28 0:38:48.150000000000091,72.2892
2013-08-28 0:38:48.980000000000018,73.1707
2013-08-28 0:38:49.800000000000182,73.1707
2013-08-28 0:38:50.619999999999891,75
2013-08-28 0:38:51.420000000000073,75
2013-08-28 0:38:52.2199999999998,73.1707
2013-08-28 0:38:53.039999999999964,71.4286
2013-08-28 0:38:53.880000000000109,70.5882
2013-08-28 0:38:54.730000000000018,68.9655
2013-08-28 0:38:55.599999999999909,67.4157
2013-08-28 0:38:56.489999999999782,64.5161
2013-08-28 0:38:57.420000000000073,63.8298
2013-08-28 0:38:58.360000000000127,63.1579
2013-08-28 0:38:59.309999999999945,63.8298
2013-08-28 0:39:0.25,63.1579
2013-08-28 0:39:1.1999999999998181,63.1579
2013-08-28 0:39:2.1500000000000909,61.8557
2013-08-28 0:39:3.1199999999998909,60.6061
2013-08-28 0:39:4.1100000000001273,60
2013-08-28 0:39:5.1100000000001273,59.4059
2013-08-28 0:39:6.1199999999998909,57.6923
2013-08-28 0:39:7.1599999999998545,57.1429
2013-08-28 0:39:8.2100000000000364,60
