Time,Datapoint
2013-08-28 0:0:4.0199999999999996,81.0811
2013-08-28 0:0:4.7599999999999998,81.0811
2013-08-28 0:0:5.5,80
2013-08-28 0:0:6.25,81.0811
2013-08-28 0:0:6.9900000000000002,81.0811
2013-08-28 0:0:7.7300000000000004,80
2013-08-28 0:0:8.4800000000000004,78.9474
2013-08-28 0:0:9.2400000000000002,80
2013-08-28 0:0:9.9900000000000002,80
2013-08-28 0:0:10.74,77.9221
2013-08-28 0:0:11.51,77.9221
2013-08-28 0:0:12.279999999999999,77.9221
2013-08-28 0:0:13.050000000000001,78.9474
2013-08-28 0:0:13.81,77.9221
2013-08-28 0:0:14.58,77.9221
2013-08-28 0:0:15.35,81.0811
2013-08-28 0:0:16.09,80
2013-08-28 0:0:16.84,80
2013-08-28 0:0:17.59,81.0811
2013-08-28 0:0:18.329999999999998,81.0811
2013-08-28 0:0:19.07,82.1918
2013-08-28 0:0:19.800000000000001,81.0811
2013-08-28 0:0:20.539999999999999,82.1918
2013-08-28 0:0:21.27,82.1918
2013-08-28 0:0:22.0,82.1918
2013-08-28 0:0:22.73,82.1918
2013-08-28 0:0:23.460000000000001,81.0811
2013-08-28 0:0:25.690000000000001,77.9221
2013-08-28 0:0:26.460000000000001,78.9474
2013-08-28 0:0:27.219999999999999,77.9221
2013-08-28 0:0:27.989999999999998,78.9474
2013-08-28 0:0:28.75,78.9474
2013-08-28 0:0:29.510000000000002,80
2013-08-28 0:0:30.260000000000002,80
2013-08-28 0:0:31.010000000000002,80
2013-08-28 0:0:31.760000000000002,81.0811
2013-08-28 0:0:32.5,81.0811
2013-08-28 0:0:33.240000000000002,80
2013-08-28 0:0:33.990000000000002,80
2013-08-28 0:0:34.740000000000002,81.0811
2013-08-28 0:0:35.479999999999997,80
2013-08-28 0:0:36.229999999999997,77.9221
2013-08-28 0:0:37.0,77.9221
2013-08-28 0:0:37.770000000000003,78.9474
2013-08-28 0:0:38.530000000000001,77.9221
2013-08-28 0:0:39.299999999999997,76.9231
2013-08-28 0:0:40.079999999999998,76.9231
2013-08-28 0:0:40.859999999999999,77.9221
2013-08-28 0:0:41.630000000000003,76.9231
2013-08-28 0:0:42.409999999999997,77.9221
2013-08-28 0:0:43.18,78.9474
2013-08-28 0:0:43.939999999999998,80
2013-08-28 0:0:44.689999999999998,78.9474
2013-08-28 0:0:45.450000000000003,77.9221
2013-08-28 0:0:46.219999999999999,80
2013-08-28 0:0:46.969999999999999,80
2013-08-28 0:0:47.719999999999999,78.9474
2013-08-28 0:0:48.479999999999997,80
2013-08-28 0:0:49.229999999999997,80
2013-08-28 0:0:49.979999999999997,80
2013-08-28 0:0:50.729999999999997,78.9474
2013-08-28 0:0:51.490000000000002,80
2013-08-28 0:0:52.240000000000002,81.0811
2013-08-28 0:0:52.979999999999997,81.0811
2013-08-28 0:0:53.719999999999999,80
2013-08-28 0:0:54.469999999999999,81.0811
2013-08-28 0:0:55.210000000000001,81.0811
2013-08-28 0:0:55.950000000000003,81.0811
2013-08-28 0:0:56.689999999999998,90.9091
2013-08-28 0:0:58.170000000000002,82.1918
2013-08-28 0:0:58.899999999999999,80
2013-08-28 0:0:59.649999999999999,80
2013-08-28 0:1:0.39999999999999858,81.0811
2013-08-28 0:1:1.1400000000000006,81.0811
2013-08-28 0:1:1.8800000000000026,80
2013-08-28 0:1:2.6300000000000026,80
2013-08-28 0:1:3.3800000000000026,80
2013-08-28 0:1:4.1299999999999955,80
2013-08-28 0:1:4.8799999999999955,81.0811
2013-08-28 0:1:5.6200000000000045,81.0811
2013-08-28 0:1:6.3599999999999994,80
2013-08-28 0:1:7.1099999999999994,82.1918
2013-08-28 0:1:7.8400000000000034,81.0811
2013-08-28 0:1:8.5799999999999983,81.0811
2013-08-28 0:1:9.3199999999999932,81.0811
2013-08-28 0:1:10.060000000000002,82.1918
2013-08-28 0:1:10.790000000000006,81.0811
2013-08-28 0:1:11.530000000000001,80
2013-08-28 0:1:12.280000000000001,81.0811
2013-08-28 0:1:13.019999999999996,82.1918
2013-08-28 0:1:13.75,80
2013-08-28 0:1:14.5,80
2013-08-28 0:1:15.25,78.9474
2013-08-28 0:1:16.010000000000005,80
2013-08-28 0:1:19.010000000000005,81.0811
2013-08-28 0:1:19.75,80
2013-08-28 0:1:20.5,78.9474
2013-08-28 0:1:21.260000000000005,78.9474
2013-08-28 0:1:22.019999999999996,80
2013-08-28 0:1:22.769999999999996,77.9221
2013-08-28 0:1:23.540000000000006,77.9221
2013-08-28 0:1:24.310000000000002,76.9231
2013-08-28 0:1:25.090000000000003,77.9221
2013-08-28 0:1:25.859999999999999,75.9494
2013-08-28 0:1:26.650000000000006,75.9494
2013-08-28 0:1:27.439999999999998,76.9231
2013-08-28 0:1:28.219999999999999,77.9221
2013-08-28 0:1:28.989999999999995,77.9221
2013-08-28 0:1:29.760000000000005,77.9221
2013-08-28 0:1:30.530000000000001,78.9474
2013-08-28 0:1:31.290000000000006,80
2013-08-28 0:1:32.040000000000006,78.9474
2013-08-28 0:1:32.799999999999997,80
2013-08-28 0:1:33.549999999999997,80
2013-08-28 0:1:34.299999999999997,80
2013-08-28 0:1:35.049999999999997,78.9474
2013-08-28 0:1:35.810000000000002,78.9474
2013-08-28 0:1:36.569999999999993,77.9221
2013-08-28 0:1:37.340000000000003,80
2013-08-28 0:1:38.090000000000003,78.9474
2013-08-28 0:1:38.849999999999994,78.9474
2013-08-28 0:1:39.609999999999999,78.9474
2013-08-28 0:1:40.370000000000005,80
2013-08-28 0:1:41.120000000000005,78.9474
2013-08-28 0:1:41.879999999999995,80
2013-08-28 0:1:42.629999999999995,80
2013-08-28 0:1:43.379999999999995,80
2013-08-28 0:1:44.129999999999995,80
2013-08-28 0:1:44.879999999999995,78.9474
2013-08-28 0:1:45.640000000000001,80
2013-08-28 0:1:46.390000000000001,80
2013-08-28 0:1:47.140000000000001,77.9221
2013-08-28 0:1:47.909999999999997,80
2013-08-28 0:1:48.659999999999997,80
2013-08-28 0:1:49.409999999999997,80
2013-08-28 0:1:50.159999999999997,80
2013-08-28 0:1:50.909999999999997,81.0811
2013-08-28 0:1:51.650000000000006,82.1918
2013-08-28 0:1:52.379999999999995,81.0811
2013-08-28 0:1:53.120000000000005,81.0811
2013-08-28 0:1:53.859999999999999,82.1918
2013-08-28 0:1:54.590000000000003,83.3333
2013-08-28 0:1:55.310000000000002,83.3333
2013-08-28 0:1:56.030000000000001,82.1918
2013-08-28 0:1:56.760000000000005,83.3333
2013-08-28 0:1:57.480000000000004,83.3333
2013-08-28 0:1:58.200000000000003,83.3333
2013-08-28 0:1:58.920000000000002,83.3333
2013-08-28 0:1:59.640000000000001,83.3333
2013-08-28 0:2:0.35999999999999943,84.507
2013-08-28 0:2:1.0699999999999932,82.1918
2013-08-28 0:2:1.7999999999999972,83.3333
2013-08-28 0:2:2.519999999999996,83.3333
2013-08-28 0:2:3.2399999999999949,82.1918
2013-08-28 0:2:3.9699999999999989,80
2013-08-28 0:2:4.7199999999999989,81.0811
2013-08-28 0:2:5.4599999999999937,81.0811
2013-08-28 0:2:6.2000000000000028,81.0811
2013-08-28 0:2:6.9399999999999977,81.0811
2013-08-28 0:2:7.6800000000000068,81.0811
2013-08-28 0:2:8.4199999999999875,83.3333
2013-08-28 0:2:9.1399999999999864,82.1918
2013-08-28 0:2:9.8700000000000045,83.3333
2013-08-28 0:2:10.590000000000003,83.3333
2013-08-28 0:2:11.310000000000002,83.3333
2013-08-28 0:2:12.030000000000001,82.1918
2013-08-28 0:2:12.759999999999991,82.1918
2013-08-28 0:2:13.490000000000009,81.0811
2013-08-28 0:2:14.22999999999999,83.3333
2013-08-28 0:2:14.949999999999989,81.0811
2013-08-28 0:2:15.689999999999998,82.1918
2013-08-28 0:2:16.419999999999987,82.1918
2013-08-28 0:2:17.150000000000006,82.1918
2013-08-28 0:2:17.879999999999995,82.1918
2013-08-28 0:2:18.610000000000014,83.3333
2013-08-28 0:2:19.330000000000013,83.3333
2013-08-28 0:2:20.050000000000011,83.3333
2013-08-28 0:2:20.77000000000001,83.3333
2013-08-28 0:2:21.490000000000009,84.507
2013-08-28 0:2:22.199999999999989,84.507
2013-08-28 0:2:22.909999999999997,83.3333
2013-08-28 0:2:23.629999999999995,82.1918
2013-08-28 0:2:24.360000000000014,84.507
2013-08-28 0:2:25.069999999999993,82.1918
2013-08-28 0:2:25.800000000000011,82.1918
2013-08-28 0:2:26.530000000000001,81.0811
2013-08-28 0:2:27.27000000000001,81.0811
2013-08-28 0:2:28.009999999999991,81.0811
2013-08-28 0:2:28.75,80
2013-08-28 0:2:29.5,81.0811
2013-08-28 0:2:30.240000000000009,80
2013-08-28 0:2:30.990000000000009,80
2013-08-28 0:2:31.740000000000009,80
2013-08-28 0:2:32.490000000000009,80
2013-08-28 0:2:33.240000000000009,80
2013-08-28 0:2:33.990000000000009,78.9474
2013-08-28 0:2:34.75,80
2013-08-28 0:2:35.5,80
2013-08-28 0:2:36.25,80
2013-08-28 0:2:37.0,81.0811
2013-08-28 0:2:37.740000000000009,81.0811
2013-08-28 0:2:38.47999999999999,80
2013-08-28 0:2:39.22999999999999,80
2013-08-28 0:2:39.97999999999999,82.1918
2013-08-28 0:2:40.710000000000008,81.0811
2013-08-28 0:2:41.449999999999989,81.0811
2013-08-28 0:2:42.189999999999998,81.0811
2013-08-28 0:2:42.930000000000007,83.3333
2013-08-28 0:2:43.650000000000006,82.1918
2013-08-28 0:2:44.379999999999995,82.1918
2013-08-28 0:2:45.110000000000014,83.3333
2013-08-28 0:2:45.830000000000013,83.3333
2013-08-28 0:2:46.550000000000011,83.3333
2013-08-28 0:2:47.27000000000001,82.1918
2013-08-28 0:2:48.0,81.0811
2013-08-28 0:2:48.740000000000009,81.0811
2013-08-28 0:2:49.47999999999999,81.0811
2013-08-28 0:2:50.219999999999999,80
2013-08-28 0:2:50.969999999999999,78.9474
2013-08-28 0:2:51.72999999999999,78.9474
2013-08-28 0:2:52.490000000000009,76.9231
2013-08-28 0:2:53.27000000000001,77.9221
2013-08-28 0:2:54.039999999999992,77.9221
2013-08-28 0:2:54.810000000000002,76.9231
2013-08-28 0:2:55.590000000000003,77.9221
2013-08-28 0:2:56.360000000000014,78.9474
2013-08-28 0:2:57.120000000000005,77.9221
2013-08-28 0:2:57.889999999999986,80
2013-08-28 0:2:58.639999999999986,80
2013-08-28 0:2:59.389999999999986,80
2013-08-28 0:3:0.13999999999998636,81.0811
2013-08-28 0:3:0.87999999999999545,82.1918
2013-08-28 0:3:1.6100000000000136,83.3333
2013-08-28 0:3:2.3300000000000125,82.1918
2013-08-28 0:3:3.0600000000000023,83.3333
2013-08-28 0:3:3.7800000000000011,83.3333
2013-08-28 0:3:4.5,83.3333
2013-08-28 0:3:5.2199999999999989,84.507
2013-08-28 0:3:5.9300000000000068,84.507
2013-08-28 0:3:6.6399999999999864,83.3333
2013-08-28 0:3:7.3600000000000136,83.3333
2013-08-28 0:3:8.0800000000000125,83.3333
2013-08-28 0:3:8.8000000000000114,81.0811
2013-08-28 0:3:9.539999999999992,81.0811
2013-08-28 0:3:10.280000000000001,82.1918
2013-08-28 0:3:11.009999999999991,82.1918
2013-08-28 0:3:11.740000000000009,81.0811
2013-08-28 0:3:12.47999999999999,81.0811
2013-08-28 0:3:13.219999999999999,82.1918
2013-08-28 0:3:13.949999999999989,82.1918
2013-08-28 0:3:14.680000000000007,84.507
2013-08-28 0:3:15.389999999999986,84.507
2013-08-28 0:3:17.5,85.7143
2013-08-28 0:3:18.199999999999989,86.9565
2013-08-28 0:3:18.889999999999986,85.7143
2013-08-28 0:3:19.590000000000003,84.507
2013-08-28 0:3:20.300000000000011,84.507
2013-08-28 0:3:21.009999999999991,85.7143
2013-08-28 0:3:21.710000000000008,84.507
2013-08-28 0:3:25.27000000000001,85.7143
2013-08-28 0:3:25.969999999999999,84.507
2013-08-28 0:3:26.680000000000007,85.7143
2013-08-28 0:3:27.379999999999995,85.7143
2013-08-28 0:3:28.080000000000013,86.9565
2013-08-28 0:3:28.77000000000001,85.7143
2013-08-28 0:3:29.469999999999999,85.7143
2013-08-28 0:3:30.169999999999987,81.0811
2013-08-28 0:3:30.909999999999997,80
2013-08-28 0:3:31.659999999999997,78.9474
2013-08-28 0:3:32.419999999999987,78.9474
2013-08-28 0:3:33.180000000000007,78.9474
2013-08-28 0:3:33.939999999999998,77.9221
2013-08-28 0:3:34.710000000000008,76.9231
2013-08-28 0:3:35.490000000000009,78.9474
2013-08-28 0:3:36.25,78.9474
2013-08-28 0:3:37.009999999999991,81.0811
2013-08-28 0:3:37.75,82.1918
2013-08-28 0:3:38.47999999999999,82.1918
2013-08-28 0:3:39.210000000000008,81.0811
2013-08-28 0:3:39.949999999999989,84.507
2013-08-28 0:3:40.659999999999997,84.507
2013-08-28 0:3:41.370000000000005,84.507
2013-08-28 0:3:42.080000000000013,85.7143
2013-08-28 0:3:42.780000000000001,86.9565
2013-08-28 0:3:43.469999999999999,86.9565
2013-08-28 0:3:44.159999999999997,88.2353
2013-08-28 0:3:44.840000000000003,88.2353
2013-08-28 0:3:45.52000000000001,89.5522
2013-08-28 0:3:46.189999999999998,88.2353
2013-08-28 0:3:46.870000000000005,85.7143
2013-08-28 0:3:47.569999999999993,83.3333
2013-08-28 0:3:48.289999999999992,83.3333
2013-08-28 0:3:49.009999999999991,83.3333
2013-08-28 0:3:49.72999999999999,82.1918
2013-08-28 0:3:50.460000000000008,82.1918
2013-08-28 0:3:51.189999999999998,78.9474
2013-08-28 0:3:51.949999999999989,78.9474
2013-08-28 0:3:52.710000000000008,78.9474
2013-08-28 0:3:53.469999999999999,81.0811
2013-08-28 0:3:54.210000000000008,83.3333
2013-08-28 0:3:54.930000000000007,84.507
2013-08-28 0:3:55.639999999999986,83.3333
2013-08-28 0:3:56.360000000000014,84.507
2013-08-28 0:3:57.069999999999993,83.3333
2013-08-28 0:3:57.789999999999992,83.3333
2013-08-28 0:3:58.509999999999991,83.3333
2013-08-28 0:3:59.22999999999999,83.3333
2013-08-28 0:3:59.949999999999989,84.507
2013-08-28 0:4:0.65999999999999659,85.7143
2013-08-28 0:4:1.3600000000000136,85.7143
2013-08-28 0:4:2.0600000000000023,86.9565
2013-08-28 0:4:2.75,85.7143
2013-08-28 0:4:3.4499999999999886,84.507
2013-08-28 0:4:4.1599999999999966,86.9565
2013-08-28 0:4:4.8499999999999943,85.7143
2013-08-28 0:4:5.5500000000000114,86.9565
2013-08-28 0:4:6.2400000000000091,85.7143
2013-08-28 0:4:6.9399999999999977,86.9565
2013-08-28 0:4:7.6299999999999955,84.507
2013-08-28 0:4:8.3400000000000034,81.0811
2013-08-28 0:4:9.0800000000000125,82.1918
2013-08-28 0:4:9.8100000000000023,82.1918
2013-08-28 0:4:10.539999999999992,80
2013-08-28 0:4:11.289999999999992,81.0811
2013-08-28 0:4:12.030000000000001,80
2013-08-28 0:4:12.780000000000001,77.9221
2013-08-28 0:4:13.550000000000011,77.9221
2013-08-28 0:4:14.319999999999993,80
2013-08-28 0:4:15.069999999999993,80
2013-08-28 0:4:15.819999999999993,82.1918
2013-08-28 0:4:16.550000000000011,82.1918
2013-08-28 0:4:17.279999999999973,83.3333
2013-08-28 0:4:18.0,84.507
2013-08-28 0:4:18.70999999999998,85.7143
2013-08-28 0:4:19.410000000000025,86.9565
2013-08-28 0:4:20.100000000000023,85.7143
2013-08-28 0:4:20.800000000000011,84.507
2013-08-28 0:4:21.509999999999991,83.3333
2013-08-28 0:4:22.230000000000018,83.3333
2013-08-28 0:4:22.949999999999989,83.3333
2013-08-28 0:4:23.670000000000016,82.1918
2013-08-28 0:4:24.399999999999977,83.3333
2013-08-28 0:4:25.120000000000005,83.3333
2013-08-28 0:4:25.839999999999975,83.3333
2013-08-28 0:4:26.560000000000002,82.1918
2013-08-28 0:4:27.29000000000002,82.1918
2013-08-28 0:4:28.019999999999982,82.1918
2013-08-28 0:4:28.75,82.1918
2013-08-28 0:4:29.480000000000018,83.3333
2013-08-28 0:4:30.199999999999989,85.7143
2013-08-28 0:4:30.899999999999977,85.7143
2013-08-28 0:4:31.600000000000023,85.7143
2013-08-28 0:4:32.300000000000011,84.507
2013-08-28 0:4:33.009999999999991,83.3333
2013-08-28 0:4:33.730000000000018,81.0811
2013-08-28 0:4:34.470000000000027,81.0811
2013-08-28 0:4:35.20999999999998,78.9474
2013-08-28 0:4:35.970000000000027,76.9231
2013-08-28 0:4:36.75,75.9494
2013-08-28 0:4:37.54000000000002,77.9221
2013-08-28 0:4:38.310000000000002,77.9221
2013-08-28 0:4:39.079999999999984,78.9474
2013-08-28 0:4:39.839999999999975,81.0811
2013-08-28 0:4:40.579999999999984,81.0811
2013-08-28 0:4:41.319999999999993,83.3333
2013-08-28 0:4:42.04000000000002,83.3333
2013-08-28 0:4:42.759999999999991,85.7143
2013-08-28 0:4:43.45999999999998,85.7143
2013-08-28 0:4:44.160000000000025,84.507
2013-08-28 0:4:44.870000000000005,84.507
2013-08-28 0:4:45.579999999999984,81.0811
2013-08-28 0:4:46.319999999999993,80
2013-08-28 0:4:47.069999999999993,77.9221
2013-08-28 0:4:47.839999999999975,77.9221
2013-08-28 0:4:48.610000000000014,77.9221
2013-08-28 0:4:49.379999999999995,77.9221
2013-08-28 0:4:50.149999999999977,80
2013-08-28 0:4:50.899999999999977,81.0811
2013-08-28 0:4:51.639999999999986,81.0811
2013-08-28 0:4:52.379999999999995,83.3333
2013-08-28 0:4:53.100000000000023,84.507
2013-08-28 0:4:53.810000000000002,84.507
2013-08-28 0:4:54.519999999999982,85.7143
2013-08-28 0:4:55.220000000000027,84.507
2013-08-28 0:4:55.930000000000007,86.9565
2013-08-28 0:4:56.620000000000005,88.2353
2013-08-28 0:4:57.300000000000011,88.2353
2013-08-28 0:4:57.980000000000018,89.5522
2013-08-28 0:4:58.649999999999977,85.7143
2013-08-28 0:4:59.350000000000023,76.9231
2013-08-28 0:5:5.5600000000000023,65.2174
2013-08-28 0:5:6.4800000000000182,67.4157
2013-08-28 0:5:7.3700000000000045,69.7674
2013-08-28 0:5:8.2300000000000182,69.7674
2013-08-28 0:5:9.089999999999975,69.7674
2013-08-28 0:5:9.9499999999999886,69.7674
2013-08-28 0:5:10.810000000000002,70.5882
2013-08-28 0:5:11.660000000000025,72.2892
2013-08-28 0:5:12.490000000000009,71.4286
2013-08-28 0:5:13.329999999999984,70.5882
2013-08-28 0:5:14.180000000000007,74.0741
2013-08-28 0:5:14.990000000000009,75
2013-08-28 0:5:15.79000000000002,75
2013-08-28 0:5:16.589999999999975,75.9494
2013-08-28 0:5:17.379999999999995,75.9494
2013-08-28 0:5:18.170000000000016,76.9231
2013-08-28 0:5:18.949999999999989,78.9474
2013-08-28 0:5:19.70999999999998,80
2013-08-28 0:5:20.45999999999998,78.9474
2013-08-28 0:5:21.220000000000027,80
2013-08-28 0:5:21.970000000000027,82.1918
2013-08-28 0:5:22.699999999999989,84.507
2013-08-28 0:5:23.410000000000025,85.7143
2013-08-28 0:5:24.110000000000014,84.507
2013-08-28 0:5:24.819999999999993,83.3333
2013-08-28 0:5:25.54000000000002,84.507
2013-08-28 0:5:26.25,83.3333
2013-08-28 0:5:26.970000000000027,84.507
2013-08-28 0:5:27.680000000000007,83.3333
2013-08-28 0:5:28.399999999999977,83.3333
2013-08-28 0:5:29.120000000000005,82.1918
2013-08-28 0:5:29.850000000000023,83.3333
2013-08-28 0:5:30.569999999999993,83.3333
2013-08-28 0:5:31.29000000000002,83.3333
2013-08-28 0:5:32.009999999999991,82.1918
2013-08-28 0:5:32.740000000000009,82.1918
2013-08-28 0:5:33.470000000000027,82.1918
2013-08-28 0:5:34.199999999999989,81.0811
2013-08-28 0:5:34.939999999999998,82.1918
2013-08-28 0:5:35.670000000000016,81.0811
2013-08-28 0:5:36.410000000000025,83.3333
2013-08-28 0:5:37.129999999999995,81.0811
2013-08-28 0:5:37.870000000000005,81.0811
2013-08-28 0:5:38.610000000000014,82.1918
2013-08-28 0:5:39.339999999999975,83.3333
2013-08-28 0:5:40.060000000000002,83.3333
2013-08-28 0:5:40.779999999999973,84.507
2013-08-28 0:5:41.490000000000009,82.1918
2013-08-28 0:5:42.220000000000027,83.3333
2013-08-28 0:5:42.939999999999998,83.3333
2013-08-28 0:5:43.660000000000025,82.1918
2013-08-28 0:5:44.389999999999986,83.3333
2013-08-28 0:5:45.110000000000014,83.3333
2013-08-28 0:5:45.829999999999984,84.507
2013-08-28 0:5:46.54000000000002,85.7143
2013-08-28 0:5:47.240000000000009,84.507
2013-08-28 0:5:47.949999999999989,84.507
2013-08-28 0:5:48.660000000000025,84.507
2013-08-28 0:5:49.370000000000005,85.7143
2013-08-28 0:5:50.069999999999993,84.507
2013-08-28 0:5:50.779999999999973,84.507
2013-08-28 0:5:51.490000000000009,84.507
2013-08-28 0:5:52.199999999999989,82.1918
2013-08-28 0:5:52.930000000000007,82.1918
2013-08-28 0:5:53.660000000000025,83.3333
2013-08-28 0:5:54.379999999999995,83.3333
2013-08-28 0:5:55.100000000000023,80
2013-08-28 0:5:55.850000000000023,80
2013-08-28 0:5:56.600000000000023,78.9474
2013-08-28 0:5:57.360000000000014,76.9231
2013-08-28 0:5:58.139999999999986,76.9231
2013-08-28 0:5:58.920000000000016,75.9494
2013-08-28 0:5:59.70999999999998,73.1707
2013-08-28 0:6:0.52999999999997272,72.2892
2013-08-28 0:6:1.3600000000000136,71.4286
2013-08-28 0:6:2.1999999999999886,72.2892
2013-08-28 0:6:3.0299999999999727,74.0741
2013-08-28 0:6:3.839999999999975,74.0741
2013-08-28 0:6:4.6499999999999773,74.0741
2013-08-28 0:6:5.4599999999999795,75.9494
2013-08-28 0:6:6.25,77.9221
2013-08-28 0:6:7.0199999999999818,77.9221
2013-08-28 0:6:7.7900000000000205,76.9231
2013-08-28 0:6:8.5699999999999932,76.9231
2013-08-28 0:6:9.3500000000000227,75.9494
2013-08-28 0:6:10.139999999999986,75.9494
2013-08-28 0:6:10.930000000000007,75.9494
2013-08-28 0:6:11.720000000000027,77.9221
2013-08-28 0:6:12.490000000000009,77.9221
2013-08-28 0:6:13.259999999999991,75.9494
2013-08-28 0:6:14.050000000000011,76.9231
2013-08-28 0:6:14.829999999999984,75.9494
2013-08-28 0:6:15.620000000000005,75
2013-08-28 0:6:16.420000000000016,75.9494
2013-08-28 0:6:17.20999999999998,75
2013-08-28 0:6:18.009999999999991,74.0741
2013-08-28 0:6:18.819999999999993,73.1707
2013-08-28 0:6:19.639999999999986,72.2892
2013-08-28 0:6:20.470000000000027,73.1707
2013-08-28 0:6:21.29000000000002,75.9494
2013-08-28 0:6:22.079999999999984,75
2013-08-28 0:6:22.879999999999995,75
2013-08-28 0:6:23.680000000000007,76.9231
2013-08-28 0:6:24.45999999999998,76.9231
2013-08-28 0:6:25.240000000000009,83.3333
2013-08-28 0:6:25.95999999999998,83.3333
2013-08-28 0:6:26.680000000000007,83.3333
2013-08-28 0:6:27.399999999999977,84.507
2013-08-28 0:6:28.110000000000014,84.507
2013-08-28 0:6:28.819999999999993,86.9565
2013-08-28 0:6:29.509999999999991,85.7143
2013-08-28 0:6:30.20999999999998,85.7143
2013-08-28 0:6:30.910000000000025,82.1918
2013-08-28 0:6:31.639999999999986,81.0811
2013-08-28 0:6:32.379999999999995,81.0811
2013-08-28 0:6:36.759999999999991,85.7143
2013-08-28 0:6:40.100000000000023,92.3077
2013-08-28 0:6:40.75,90.9091
2013-08-28 0:6:41.410000000000025,86.9565
2013-08-28 0:6:49.639999999999986,63.8298
2013-08-28 0:6:50.579999999999984,65.2174
2013-08-28 0:6:51.5,64.5161
2013-08-28 0:6:52.430000000000007,69.7674
2013-08-28 0:6:53.29000000000002,68.9655
2013-08-28 0:6:54.160000000000025,71.4286
2013-08-28 0:6:55.0,75
2013-08-28 0:6:55.800000000000011,75
2013-08-28 0:6:56.600000000000023,75.9494
2013-08-28 0:6:57.389999999999986,75.9494
2013-08-28 0:6:58.180000000000007,76.9231
2013-08-28 0:6:58.95999999999998,76.9231
2013-08-28 0:6:59.740000000000009,77.9221
2013-08-28 0:7:7.589999999999975,75
2013-08-28 0:7:8.3899999999999864,73.1707
2013-08-28 0:7:9.2099999999999795,75
2013-08-28 0:7:10.009999999999991,75
2013-08-28 0:7:10.810000000000002,75
2013-08-28 0:7:11.610000000000014,75.9494
2013-08-28 0:7:19.279999999999973,75
2013-08-28 0:7:22.399999999999977,75.9494
2013-08-28 0:7:23.189999999999998,74.0741
2013-08-28 0:8:12.860000000000014,86.9565
2013-08-28 0:8:13.550000000000011,80
2013-08-28 0:8:22.120000000000005,81.0811
2013-08-28 0:8:22.860000000000014,82.1918
2013-08-28 0:8:23.589999999999975,85.7143
2013-08-28 0:8:24.29000000000002,83.3333
2013-08-28 0:8:25.009999999999991,89.5522
2013-08-28 0:8:25.680000000000007,90.9091
2013-08-28 0:8:28.329999999999984,90.9091
2013-08-28 0:8:28.990000000000009,92.3077
2013-08-28 0:8:29.639999999999986,92.3077
2013-08-28 0:8:30.29000000000002,92.3077
2013-08-28 0:8:30.939999999999998,88.2353
2013-08-28 0:8:31.620000000000005,86.9565
2013-08-28 0:8:32.309999999999945,84.507
2013-08-28 0:8:33.019999999999982,81.0811
2013-08-28 0:8:33.759999999999991,78.9474
2013-08-28 0:8:34.519999999999982,77.9221
2013-08-28 0:8:35.289999999999964,76.9231
2013-08-28 0:8:36.07000000000005,80
2013-08-28 0:8:36.82000000000005,80
2013-08-28 0:8:37.57000000000005,80
2013-08-28 0:8:38.32000000000005,81.0811
2013-08-28 0:8:39.059999999999945,81.0811
2013-08-28 0:8:39.799999999999955,81.0811
2013-08-28 0:8:40.539999999999964,83.3333
2013-08-28 0:8:41.259999999999991,83.3333
2013-08-28 0:8:41.980000000000018,84.507
2013-08-28 0:8:42.690000000000055,83.3333
2013-08-28 0:8:43.409999999999968,84.507
2013-08-28 0:8:44.120000000000005,88.2353
2013-08-28 0:8:44.799999999999955,85.7143
2013-08-28 0:8:45.5,88.2353
2013-08-28 0:8:46.17999999999995,86.9565
2013-08-28 0:8:46.870000000000005,85.7143
2013-08-28 0:8:47.57000000000005,88.2353
2013-08-28 0:8:48.25,84.507
2013-08-28 0:8:48.960000000000036,82.1918
2013-08-28 0:8:49.690000000000055,76.9231
2013-08-28 0:8:50.470000000000027,80
2013-08-28 0:8:51.220000000000027,77.9221
2013-08-28 0:8:51.990000000000009,76.9231
2013-08-28 0:8:52.769999999999982,75
2013-08-28 0:8:53.57000000000005,74.0741
2013-08-28 0:8:54.379999999999995,75
2013-08-28 0:8:55.17999999999995,74.0741
2013-08-28 0:8:55.990000000000009,72.2892
2013-08-28 0:8:56.82000000000005,73.1707
2013-08-28 0:8:57.639999999999986,73.1707
2013-08-28 0:8:58.460000000000036,72.2892
2013-08-28 0:8:59.289999999999964,73.1707
2013-08-28 0:9:0.11000000000001364,70.5882
2013-08-28 0:9:0.96000000000003638,70.5882
2013-08-28 0:9:1.8099999999999454,70.5882
2013-08-28 0:9:2.6599999999999682,72.2892
2013-08-28 0:9:3.4900000000000091,74.0741
2013-08-28 0:9:4.2999999999999545,73.1707
2013-08-28 0:9:5.1200000000000045,72.2892
2013-08-28 0:9:5.9500000000000455,72.2892
2013-08-28 0:9:6.7799999999999727,74.0741
2013-08-28 0:9:7.5900000000000318,73.1707
2013-08-28 0:9:8.4099999999999682,73.1707
2013-08-28 0:9:9.2300000000000182,75.9494
2013-08-28 0:9:10.019999999999982,75.9494
2013-08-28 0:9:10.809999999999945,75
2013-08-28 0:9:11.610000000000014,74.0741
2013-08-28 0:9:12.419999999999959,77.9221
2013-08-28 0:9:13.190000000000055,75.9494
2013-08-28 0:9:13.980000000000018,75.9494
2013-08-28 0:9:14.769999999999982,74.0741
2013-08-28 0:9:15.580000000000041,75.9494
2013-08-28 0:9:16.370000000000005,76.9231
2013-08-28 0:9:17.149999999999977,75
2013-08-28 0:9:17.950000000000045,73.1707
2013-08-28 0:9:18.769999999999982,75
2013-08-28 0:9:19.57000000000005,75
2013-08-28 0:9:20.370000000000005,74.0741
2013-08-28 0:9:21.17999999999995,73.1707
2013-08-28 0:9:22.0,72.2892
2013-08-28 0:9:22.830000000000041,74.0741
2013-08-28 0:9:23.639999999999986,72.2892
2013-08-28 0:9:24.470000000000027,74.0741
2013-08-28 0:9:25.279999999999973,72.2892
2013-08-28 0:9:26.110000000000014,75
2013-08-28 0:9:26.909999999999968,73.1707
2013-08-28 0:9:27.730000000000018,74.0741
2013-08-28 0:9:28.539999999999964,75
2013-08-28 0:9:29.340000000000032,75.9494
2013-08-28 0:9:30.129999999999995,75
2013-08-28 0:9:30.92999999999995,75
2013-08-28 0:9:31.730000000000018,76.9231
2013-08-28 0:9:32.509999999999991,75.9494
2013-08-28 0:9:33.299999999999955,75.9494
2013-08-28 0:9:34.090000000000032,77.9221
2013-08-28 0:9:34.860000000000014,76.9231
2013-08-28 0:9:35.639999999999986,75.9494
2013-08-28 0:9:36.42999999999995,76.9231
2013-08-28 0:9:37.210000000000036,76.9231
2013-08-28 0:9:37.990000000000009,76.9231
2013-08-28 0:9:38.769999999999982,75.9494
2013-08-28 0:9:39.559999999999945,76.9231
2013-08-28 0:9:40.340000000000032,77.9221
2013-08-28 0:9:41.110000000000014,75.9494
2013-08-28 0:9:41.899999999999977,75.9494
2013-08-28 0:9:42.690000000000055,76.9231
2013-08-28 0:9:43.470000000000027,76.9231
2013-08-28 0:9:44.25,75
2013-08-28 0:9:45.049999999999955,75.9494
2013-08-28 0:9:45.840000000000032,76.9231
2013-08-28 0:9:46.620000000000005,75.9494
2013-08-28 0:9:47.409999999999968,75.9494
2013-08-28 0:9:48.200000000000045,76.9231
2013-08-28 0:9:48.980000000000018,75.9494
2013-08-28 0:9:49.769999999999982,75.9494
2013-08-28 0:9:50.559999999999945,76.9231
2013-08-28 0:9:51.340000000000032,75.9494
2013-08-28 0:9:52.129999999999995,76.9231
2013-08-28 0:9:52.909999999999968,77.9221
2013-08-28 0:9:53.67999999999995,78.9474
2013-08-28 0:9:54.440000000000055,75.9494
2013-08-28 0:9:55.230000000000018,75.9494
2013-08-28 0:9:56.019999999999982,76.9231
2013-08-28 0:9:56.799999999999955,78.9474
2013-08-28 0:9:57.559999999999945,76.9231
2013-08-28 0:9:58.340000000000032,76.9231
2013-08-28 0:9:59.120000000000005,76.9231
2013-08-28 0:9:59.899999999999977,78.9474
2013-08-28 0:10:0.65999999999996817,77.9221
2013-08-28 0:10:1.42999999999995,76.9231
2013-08-28 0:10:2.2100000000000364,76.9231
2013-08-28 0:10:2.9900000000000091,77.9221
2013-08-28 0:10:3.7599999999999909,76.9231
2013-08-28 0:10:4.5399999999999636,76.9231
2013-08-28 0:10:5.32000000000005,77.9221
2013-08-28 0:10:6.0900000000000318,76.9231
2013-08-28 0:10:6.8700000000000045,76.9231
2013-08-28 0:10:7.6499999999999773,77.9221
2013-08-28 0:10:8.4199999999999591,80
2013-08-28 0:10:9.1699999999999591,77.9221
2013-08-28 0:10:9.9400000000000546,77.9221
2013-08-28 0:10:10.710000000000036,78.9474
2013-08-28 0:10:11.470000000000027,78.9474
2013-08-28 0:10:12.230000000000018,80
2013-08-28 0:10:12.980000000000018,80
2013-08-28 0:10:13.730000000000018,80
2013-08-28 0:10:14.480000000000018,78.9474
2013-08-28 0:10:15.240000000000009,81.0811
2013-08-28 0:10:15.980000000000018,80
2013-08-28 0:10:16.730000000000018,78.9474
2013-08-28 0:10:17.490000000000009,80
2013-08-28 0:10:18.240000000000009,80
2013-08-28 0:10:18.990000000000009,78.9474
2013-08-28 0:10:19.75,78.9474
2013-08-28 0:10:20.509999999999991,77.9221
2013-08-28 0:10:21.279999999999973,78.9474
2013-08-28 0:10:22.039999999999964,76.9231
2013-08-28 0:10:22.82000000000005,75.9494
2013-08-28 0:10:23.610000000000014,76.9231
2013-08-28 0:10:24.389999999999986,76.9231
2013-08-28 0:10:25.169999999999959,76.9231
2013-08-28 0:10:25.950000000000045,77.9221
2013-08-28 0:10:26.720000000000027,77.9221
2013-08-28 0:10:27.490000000000009,78.9474
2013-08-28 0:10:28.25,77.9221
2013-08-28 0:10:29.019999999999982,80
2013-08-28 0:10:29.769999999999982,81.0811
2013-08-28 0:10:30.509999999999991,78.9474
2013-08-28 0:10:31.269999999999982,77.9221
2013-08-28 0:10:32.039999999999964,78.9474
2013-08-28 0:10:32.799999999999955,78.9474
2013-08-28 0:10:33.559999999999945,76.9231
2013-08-28 0:10:34.340000000000032,77.9221
2013-08-28 0:10:35.110000000000014,76.9231
2013-08-28 0:10:35.889999999999986,76.9231
2013-08-28 0:10:36.669999999999959,76.9231
2013-08-28 0:10:37.450000000000045,76.9231
2013-08-28 0:10:38.230000000000018,78.9474
2013-08-28 0:10:38.990000000000009,76.9231
2013-08-28 0:10:39.769999999999982,77.9221
2013-08-28 0:10:40.539999999999964,78.9474
2013-08-28 0:10:41.299999999999955,78.9474
2013-08-28 0:10:42.059999999999945,77.9221
2013-08-28 0:10:42.830000000000041,78.9474
2013-08-28 0:10:43.590000000000032,80
2013-08-28 0:10:44.340000000000032,77.9221
2013-08-28 0:10:45.110000000000014,76.9231
2013-08-28 0:10:45.889999999999986,77.9221
2013-08-28 0:10:46.659999999999968,77.9221
2013-08-28 0:10:47.42999999999995,76.9231
2013-08-28 0:10:48.210000000000036,76.9231
2013-08-28 0:10:48.990000000000009,77.9221
2013-08-28 0:10:49.759999999999991,76.9231
2013-08-28 0:10:50.539999999999964,76.9231
2013-08-28 0:10:51.32000000000005,77.9221
2013-08-28 0:10:52.090000000000032,78.9474
2013-08-28 0:10:52.850000000000023,76.9231
2013-08-28 0:10:53.629999999999995,78.9474
2013-08-28 0:10:54.389999999999986,78.9474
2013-08-28 0:10:55.149999999999977,78.9474
2013-08-28 0:10:55.909999999999968,78.9474
2013-08-28 0:10:56.669999999999959,78.9474
2013-08-28 0:10:57.42999999999995,77.9221
2013-08-28 0:10:58.200000000000045,75
2013-08-28 0:10:59.0,70.5882
2013-08-28 0:10:59.850000000000023,73.1707
2013-08-28 0:11:0.66999999999995907,72.2892
2013-08-28 0:11:1.5,73.1707
2013-08-28 0:11:2.32000000000005,74.0741
2013-08-28 0:11:3.1299999999999955,75.9494
2013-08-28 0:11:3.9199999999999591,75.9494
2013-08-28 0:11:4.7100000000000364,77.9221
2013-08-28 0:11:5.4800000000000182,77.9221
2013-08-28 0:11:6.25,78.9474
2013-08-28 0:11:7.0099999999999909,77.9221
2013-08-28 0:11:7.7799999999999727,77.9221
2013-08-28 0:11:8.5499999999999545,78.9474
2013-08-28 0:11:9.3099999999999454,78.9474
2013-08-28 0:11:10.07000000000005,78.9474
2013-08-28 0:11:10.830000000000041,78.9474
2013-08-28 0:11:11.590000000000032,80
2013-08-28 0:11:12.340000000000032,77.9221
2013-08-28 0:11:13.110000000000014,77.9221
2013-08-28 0:11:13.879999999999995,76.9231
2013-08-28 0:11:14.659999999999968,75.9494
2013-08-28 0:11:15.450000000000045,80
2013-08-28 0:11:16.200000000000045,80
2013-08-28 0:11:16.950000000000045,80
2013-08-28 0:11:17.700000000000045,81.0811
2013-08-28 0:11:18.440000000000055,81.0811
2013-08-28 0:11:19.17999999999995,82.1918
2013-08-28 0:11:19.909999999999968,84.507
2013-08-28 0:11:20.620000000000005,84.507
2013-08-28 0:11:21.330000000000041,85.7143
2013-08-28 0:11:22.029999999999973,89.5522
2013-08-28 0:11:22.700000000000045,88.2353
2013-08-28 0:11:23.379999999999995,88.2353
2013-08-28 0:11:24.059999999999945,85.7143
2013-08-28 0:11:24.759999999999991,80
2013-08-28 0:11:25.509999999999991,75
2013-08-28 0:11:26.309999999999945,76.9231
2013-08-28 0:11:27.090000000000032,71.4286
2013-08-28 0:11:29.740000000000009,67.4157
2013-08-28 0:11:30.629999999999995,68.1818
2013-08-28 0:11:31.509999999999991,66.6667
2013-08-28 0:11:32.409999999999968,66.6667
2013-08-28 0:11:33.309999999999945,65.9341
2013-08-28 0:11:34.220000000000027,67.4157
2013-08-28 0:11:35.110000000000014,68.1818
2013-08-28 0:11:35.990000000000009,72.2892
2013-08-28 0:11:36.82000000000005,74.0741
2013-08-28 0:11:37.629999999999995,74.0741
2013-08-28 0:11:38.440000000000055,75
2013-08-28 0:11:39.240000000000009,77.9221
2013-08-28 0:11:40.009999999999991,77.9221
2013-08-28 0:11:40.779999999999973,77.9221
2013-08-28 0:11:41.549999999999955,77.9221
2013-08-28 0:11:42.32000000000005,78.9474
2013-08-28 0:11:43.080000000000041,78.9474
2013-08-28 0:11:43.840000000000032,75.9494
2013-08-28 0:11:44.629999999999995,76.9231
2013-08-28 0:11:45.409999999999968,76.9231
2013-08-28 0:11:46.190000000000055,76.9231
2013-08-28 0:11:46.970000000000027,75.9494
2013-08-28 0:11:47.759999999999991,75
2013-08-28 0:11:48.559999999999945,75.9494
2013-08-28 0:11:49.350000000000023,75
2013-08-28 0:11:50.149999999999977,74.0741
2013-08-28 0:11:50.960000000000036,75
2013-08-28 0:11:51.759999999999991,75
2013-08-28 0:11:52.559999999999945,74.0741
2013-08-28 0:11:53.370000000000005,74.0741
2013-08-28 0:11:54.17999999999995,74.0741
2013-08-28 0:11:54.990000000000009,73.1707
2013-08-28 0:11:55.809999999999945,73.1707
2013-08-28 0:11:56.629999999999995,73.1707
2013-08-28 0:11:57.450000000000045,75
2013-08-28 0:11:58.25,74.0741
2013-08-28 0:11:59.059999999999945,74.0741
2013-08-28 0:11:59.870000000000005,74.0741
2013-08-28 0:12:0.67999999999994998,75
2013-08-28 0:12:1.4800000000000182,74.0741
2013-08-28 0:12:2.2899999999999636,72.2892
2013-08-28 0:12:3.1200000000000045,73.1707
2013-08-28 0:12:3.9400000000000546,73.1707
2013-08-28 0:12:4.7599999999999909,70.5882
2013-08-28 0:12:5.6100000000000136,70.5882
2013-08-28 0:12:6.4600000000000364,73.1707
2013-08-28 0:12:7.2799999999999727,73.1707
2013-08-28 0:12:8.1000000000000227,74.0741
2013-08-28 0:12:8.9099999999999682,74.0741
2013-08-28 0:12:9.7200000000000273,75.9494
2013-08-28 0:12:10.509999999999991,75.9494
2013-08-28 0:12:11.299999999999955,74.0741
2013-08-28 0:12:12.110000000000014,75
2013-08-28 0:12:12.909999999999968,75.9494
2013-08-28 0:12:13.700000000000045,73.1707
2013-08-28 0:12:14.519999999999982,73.1707
2013-08-28 0:12:15.340000000000032,75.9494
2013-08-28 0:12:16.129999999999995,75.9494
2013-08-28 0:12:16.919999999999959,73.1707
2013-08-28 0:12:17.740000000000009,74.0741
2013-08-28 0:12:18.549999999999955,74.0741
2013-08-28 0:12:19.360000000000014,74.0741
2013-08-28 0:12:20.169999999999959,72.2892
2013-08-28 0:12:21.0,75
2013-08-28 0:12:21.799999999999955,73.1707
2013-08-28 0:12:22.620000000000005,72.2892
2013-08-28 0:12:23.450000000000045,73.1707
2013-08-28 0:12:24.269999999999982,73.1707
2013-08-28 0:12:25.090000000000032,73.1707
2013-08-28 0:12:25.909999999999968,75
2013-08-28 0:12:26.710000000000036,73.1707
2013-08-28 0:12:27.529999999999973,74.0741
2013-08-28 0:12:28.340000000000032,70.5882
2013-08-28 0:12:29.190000000000055,75
2013-08-28 0:12:29.990000000000009,73.1707
2013-08-28 0:12:30.809999999999945,74.0741
2013-08-28 0:12:31.620000000000005,74.0741
2013-08-28 0:12:32.42999999999995,75.9494
2013-08-28 0:12:33.220000000000027,75.9494
2013-08-28 0:12:34.009999999999991,75.9494
2013-08-28 0:12:34.799999999999955,76.9231
2013-08-28 0:12:35.580000000000041,76.9231
2013-08-28 0:12:36.360000000000014,75.9494
2013-08-28 0:12:37.149999999999977,73.1707
2013-08-28 0:12:37.970000000000027,74.0741
2013-08-28 0:12:38.779999999999973,75.9494
2013-08-28 0:12:39.57000000000005,75
2013-08-28 0:12:40.370000000000005,75
2013-08-28 0:12:41.169999999999959,76.9231
2013-08-28 0:12:41.950000000000045,77.9221
2013-08-28 0:12:42.720000000000027,76.9231
2013-08-28 0:12:43.5,76.9231
2013-08-28 0:12:44.279999999999973,77.9221
2013-08-28 0:12:45.049999999999955,76.9231
2013-08-28 0:12:45.830000000000041,76.9231
2013-08-28 0:12:46.610000000000014,76.9231
2013-08-28 0:12:47.389999999999986,77.9221
2013-08-28 0:12:48.159999999999968,75.9494
2013-08-28 0:12:48.950000000000045,75.9494
2013-08-28 0:12:49.740000000000009,77.9221
2013-08-28 0:12:50.509999999999991,76.9231
2013-08-28 0:12:51.289999999999964,75.9494
2013-08-28 0:12:52.080000000000041,75.9494
2013-08-28 0:12:52.870000000000005,75.9494
2013-08-28 0:12:53.659999999999968,77.9221
2013-08-28 0:12:54.42999999999995,76.9231
2013-08-28 0:12:55.210000000000036,76.9231
2013-08-28 0:12:55.990000000000009,78.9474
2013-08-28 0:12:56.75,77.9221
2013-08-28 0:12:57.519999999999982,77.9221
2013-08-28 0:12:58.289999999999964,77.9221
2013-08-28 0:12:59.059999999999945,77.9221
2013-08-28 0:12:59.830000000000041,78.9474
2013-08-28 0:13:0.59000000000003183,77.9221
2013-08-28 0:13:1.3600000000000136,75.9494
2013-08-28 0:13:2.1499999999999773,72.2892
2013-08-28 0:13:2.9800000000000182,75
2013-08-28 0:13:3.7799999999999727,75
2013-08-28 0:13:4.5800000000000409,74.0741
2013-08-28 0:13:5.3899999999999864,75
2013-08-28 0:13:6.1900000000000546,76.9231
2013-08-28 0:13:6.9700000000000273,75.9494
2013-08-28 0:13:7.7599999999999909,76.9231
2013-08-28 0:13:8.5399999999999636,77.9221
2013-08-28 0:13:9.3099999999999454,77.9221
2013-08-28 0:13:10.080000000000041,76.9231
2013-08-28 0:13:10.860000000000014,76.9231
2013-08-28 0:13:11.639999999999986,78.9474
2013-08-28 0:13:12.399999999999977,77.9221
2013-08-28 0:13:13.169999999999959,77.9221
2013-08-28 0:13:13.940000000000055,76.9231
2013-08-28 0:13:14.720000000000027,78.9474
2013-08-28 0:13:15.480000000000018,78.9474
2013-08-28 0:13:16.240000000000009,77.9221
2013-08-28 0:13:17.009999999999991,78.9474
2013-08-28 0:13:17.769999999999982,80
2013-08-28 0:13:18.519999999999982,80
2013-08-28 0:13:19.269999999999982,77.9221
2013-08-28 0:13:20.039999999999964,78.9474
2013-08-28 0:13:20.799999999999955,80
2013-08-28 0:13:21.549999999999955,78.9474
2013-08-28 0:13:22.309999999999945,78.9474
2013-08-28 0:13:23.07000000000005,78.9474
2013-08-28 0:13:23.830000000000041,80
2013-08-28 0:13:24.580000000000041,78.9474
2013-08-28 0:13:25.340000000000032,78.9474
2013-08-28 0:13:26.100000000000023,81.0811
2013-08-28 0:13:26.840000000000032,81.0811
2013-08-28 0:13:27.580000000000041,80
2013-08-28 0:13:28.330000000000041,81.0811
2013-08-28 0:13:29.07000000000005,82.1918
2013-08-28 0:13:29.799999999999955,81.0811
2013-08-28 0:13:30.539999999999964,81.0811
2013-08-28 0:13:31.279999999999973,81.0811
2013-08-28 0:13:32.019999999999982,82.1918
2013-08-28 0:13:32.75,81.0811
2013-08-28 0:13:33.490000000000009,82.1918
2013-08-28 0:13:34.220000000000027,81.0811
2013-08-28 0:13:34.960000000000036,80
2013-08-28 0:13:35.710000000000036,81.0811
2013-08-28 0:13:36.450000000000045,78.9474
2013-08-28 0:13:37.210000000000036,80
2013-08-28 0:13:37.960000000000036,81.0811
2013-08-28 0:13:38.700000000000045,81.0811
2013-08-28 0:13:39.440000000000055,80
2013-08-28 0:13:40.190000000000055,82.1918
2013-08-28 0:13:40.919999999999959,82.1918
2013-08-28 0:13:41.649999999999977,81.0811
2013-08-28 0:13:42.389999999999986,81.0811
2013-08-28 0:13:43.129999999999995,82.1918
2013-08-28 0:13:43.860000000000014,82.1918
2013-08-28 0:13:44.590000000000032,82.1918
2013-08-28 0:13:45.32000000000005,81.0811
2013-08-28 0:13:46.059999999999945,82.1918
2013-08-28 0:13:46.789999999999964,81.0811
2013-08-28 0:13:47.529999999999973,78.9474
2013-08-28 0:13:48.289999999999964,77.9221
2013-08-28 0:13:49.059999999999945,77.9221
2013-08-28 0:13:49.830000000000041,78.9474
2013-08-28 0:13:50.590000000000032,77.9221
2013-08-28 0:13:51.360000000000014,78.9474
2013-08-28 0:13:52.120000000000005,80
2013-08-28 0:13:52.870000000000005,80
2013-08-28 0:13:53.620000000000005,80
2013-08-28 0:13:54.370000000000005,82.1918
2013-08-28 0:13:55.100000000000023,81.0811
2013-08-28 0:13:55.840000000000032,80
2013-08-28 0:13:56.590000000000032,78.9474
2013-08-28 0:13:57.350000000000023,81.0811
2013-08-28 0:13:58.090000000000032,80
2013-08-28 0:13:58.840000000000032,82.1918
2013-08-28 0:13:59.57000000000005,82.1918
2013-08-28 0:14:0.29999999999995453,83.3333
2013-08-28 0:14:1.0199999999999818,84.507
2013-08-28 0:14:1.7300000000000182,85.7143
2013-08-28 0:14:2.42999999999995,85.7143
2013-08-28 0:14:3.1299999999999955,84.507
2013-08-28 0:14:3.8400000000000318,83.3333
2013-08-28 0:14:4.5599999999999454,84.507
2013-08-28 0:14:5.2699999999999818,82.1918
2013-08-28 0:14:6.0,82.1918
2013-08-28 0:14:6.7300000000000182,81.0811
2013-08-28 0:14:7.4700000000000273,81.0811
2013-08-28 0:14:8.2100000000000364,80
2013-08-28 0:14:8.9600000000000364,80
2013-08-28 0:14:9.7100000000000364,77.9221
2013-08-28 0:14:10.480000000000018,77.9221
2013-08-28 0:14:11.25,77.9221
2013-08-28 0:14:12.019999999999982,77.9221
2013-08-28 0:14:12.789999999999964,75.9494
2013-08-28 0:14:13.580000000000041,76.9231
2013-08-28 0:14:14.360000000000014,76.9231
2013-08-28 0:14:15.139999999999986,75.9494
2013-08-28 0:14:15.92999999999995,76.9231
2013-08-28 0:14:16.710000000000036,75.9494
2013-08-28 0:14:17.5,77.9221
2013-08-28 0:14:18.269999999999982,76.9231
2013-08-28 0:14:19.049999999999955,75.9494
2013-08-28 0:14:19.840000000000032,75.9494
2013-08-28 0:14:20.629999999999995,77.9221
2013-08-28 0:14:21.399999999999977,75.9494
2013-08-28 0:14:22.190000000000055,76.9231
2013-08-28 0:14:22.970000000000027,76.9231
2013-08-28 0:14:23.75,76.9231
2013-08-28 0:14:24.529999999999973,75.9494
2013-08-28 0:14:25.32000000000005,75
2013-08-28 0:14:26.120000000000005,75.9494
2013-08-28 0:14:26.909999999999968,75.9494
2013-08-28 0:14:27.700000000000045,75
2013-08-28 0:14:28.5,75.9494
2013-08-28 0:14:29.289999999999964,77.9221
2013-08-28 0:14:30.059999999999945,76.9231
2013-08-28 0:14:30.840000000000032,77.9221
2013-08-28 0:14:31.610000000000014,76.9231
2013-08-28 0:14:32.389999999999986,78.9474
2013-08-28 0:14:33.149999999999977,76.9231
2013-08-28 0:14:33.92999999999995,76.9231
2013-08-28 0:14:34.710000000000036,77.9221
2013-08-28 0:14:35.480000000000018,77.9221
2013-08-28 0:14:36.25,75.9494
2013-08-28 0:14:37.039999999999964,76.9231
2013-08-28 0:14:37.82000000000005,77.9221
2013-08-28 0:14:38.590000000000032,76.9231
2013-08-28 0:14:39.370000000000005,76.9231
2013-08-28 0:14:40.149999999999977,75.9494
2013-08-28 0:14:40.940000000000055,77.9221
2013-08-28 0:14:41.710000000000036,76.9231
2013-08-28 0:14:42.490000000000009,75.9494
2013-08-28 0:14:43.279999999999973,75.9494
2013-08-28 0:14:44.07000000000005,76.9231
2013-08-28 0:14:44.850000000000023,75.9494
2013-08-28 0:14:45.639999999999986,75.9494
2013-08-28 0:14:46.42999999999995,75
2013-08-28 0:14:47.230000000000018,76.9231
2013-08-28 0:14:48.009999999999991,75.9494
2013-08-28 0:14:48.799999999999955,75.9494
2013-08-28 0:14:49.590000000000032,76.9231
2013-08-28 0:14:50.370000000000005,77.9221
2013-08-28 0:14:51.139999999999986,75.9494
2013-08-28 0:14:51.92999999999995,76.9231
2013-08-28 0:14:52.710000000000036,76.9231
2013-08-28 0:14:53.490000000000009,76.9231
2013-08-28 0:14:54.269999999999982,76.9231
2013-08-28 0:14:55.049999999999955,77.9221
2013-08-28 0:14:55.82000000000005,76.9231
2013-08-28 0:14:56.600000000000023,76.9231
2013-08-28 0:14:57.379999999999995,76.9231
2013-08-28 0:14:58.159999999999968,77.9221
2013-08-28 0:14:58.92999999999995,78.9474
2013-08-28 0:14:59.690000000000055,77.9221
2013-08-28 0:15:0.46000000000003638,77.9221
2013-08-28 0:15:1.2300000000000182,76.9231
2013-08-28 0:15:2.0099999999999909,77.9221
2013-08-28 0:15:2.7799999999999727,76.9231
2013-08-28 0:15:3.5599999999999454,75.9494
2013-08-28 0:15:4.3500000000000227,75
2013-08-28 0:15:5.1499999999999773,75.9494
2013-08-28 0:15:5.9400000000000546,75
2013-08-28 0:15:6.7400000000000091,74.0741
2013-08-28 0:15:7.5499999999999545,75.9494
2013-08-28 0:15:8.3400000000000318,76.9231
2013-08-28 0:15:9.1200000000000045,76.9231
2013-08-28 0:15:9.8999999999999773,76.9231
2013-08-28 0:15:10.67999999999995,77.9221
2013-08-28 0:15:11.450000000000045,77.9221
2013-08-28 0:15:12.220000000000027,78.9474
2013-08-28 0:15:12.980000000000018,78.9474
2013-08-28 0:15:13.740000000000009,77.9221
2013-08-28 0:15:14.509999999999991,80
2013-08-28 0:15:15.259999999999991,78.9474
2013-08-28 0:15:16.019999999999982,77.9221
2013-08-28 0:15:16.789999999999964,78.9474
2013-08-28 0:15:17.549999999999955,77.9221
2013-08-28 0:15:18.32000000000005,77.9221
2013-08-28 0:15:19.090000000000032,76.9231
2013-08-28 0:15:19.870000000000005,75.9494
2013-08-28 0:15:20.659999999999968,77.9221
2013-08-28 0:15:21.42999999999995,76.9231
2013-08-28 0:15:22.210000000000036,76.9231
2013-08-28 0:15:22.990000000000009,77.9221
2013-08-28 0:15:23.759999999999991,77.9221
2013-08-28 0:15:24.529999999999973,76.9231
2013-08-28 0:15:25.309999999999945,76.9231
2013-08-28 0:15:26.090000000000032,77.9221
2013-08-28 0:15:26.860000000000014,77.9221
2013-08-28 0:15:27.629999999999995,76.9231
2013-08-28 0:15:28.409999999999968,76.9231
2013-08-28 0:15:29.190000000000055,77.9221
2013-08-28 0:15:29.960000000000036,75.9494
2013-08-28 0:15:30.75,76.9231
2013-08-28 0:15:31.529999999999973,78.9474
2013-08-28 0:15:32.289999999999964,76.9231
2013-08-28 0:15:33.07000000000005,76.9231
2013-08-28 0:15:33.850000000000023,77.9221
2013-08-28 0:15:34.620000000000005,77.9221
2013-08-28 0:15:35.389999999999986,77.9221
2013-08-28 0:15:36.159999999999968,76.9231
2013-08-28 0:15:36.940000000000055,75.9494
2013-08-28 0:15:37.730000000000018,80
2013-08-28 0:15:38.480000000000018,80
2013-08-28 0:15:39.230000000000018,80
2013-08-28 0:15:39.980000000000018,80
2013-08-28 0:15:40.730000000000018,78.9474
2013-08-28 0:15:41.490000000000009,78.9474
2013-08-28 0:15:42.25,76.9231
2013-08-28 0:15:43.029999999999973,77.9221
2013-08-28 0:15:43.799999999999955,77.9221
2013-08-28 0:15:44.57000000000005,76.9231
2013-08-28 0:15:45.350000000000023,78.9474
2013-08-28 0:15:46.110000000000014,78.9474
2013-08-28 0:15:46.870000000000005,78.9474
2013-08-28 0:15:47.629999999999995,78.9474
2013-08-28 0:15:48.389999999999986,81.0811
2013-08-28 0:15:49.129999999999995,82.1918
2013-08-28 0:15:49.860000000000014,85.7143
2013-08-28 0:15:50.559999999999945,85.7143
2013-08-28 0:15:59.940000000000055,92.3077
2013-08-28 0:16:0.59000000000003183,93.75
2013-08-28 0:16:1.2300000000000182,93.75
2013-08-28 0:16:1.8700000000000045,92.3077
2013-08-28 0:16:2.5199999999999818,89.5522
2013-08-28 0:16:3.1900000000000546,80
2013-08-28 0:16:7.3799999999999955,70.5882
2013-08-28 0:16:8.2300000000000182,70.5882
2013-08-28 0:16:9.0800000000000409,71.4286
2013-08-28 0:16:9.9199999999999591,72.2892
2013-08-28 0:16:10.75,74.0741
2013-08-28 0:16:11.559999999999945,75.9494
2013-08-28 0:16:12.350000000000023,78.9474
2013-08-28 0:16:13.110000000000014,78.9474
2013-08-28 0:16:13.870000000000005,78.9474
2013-08-28 0:16:14.629999999999995,78.9474
2013-08-28 0:16:15.389999999999986,80
2013-08-28 0:16:16.139999999999986,77.9221
2013-08-28 0:16:16.909999999999968,76.9231
2013-08-28 0:16:17.690000000000055,74.0741
2013-08-28 0:16:18.5,75
2013-08-28 0:16:19.299999999999955,74.0741
2013-08-28 0:16:20.110000000000014,72.2892
2013-08-28 0:16:20.940000000000055,73.1707
2013-08-28 0:16:21.759999999999991,74.0741
2013-08-28 0:16:22.57000000000005,74.0741
2013-08-28 0:16:23.379999999999995,72.2892
2013-08-28 0:16:24.210000000000036,72.2892
2013-08-28 0:16:25.039999999999964,73.1707
2013-08-28 0:16:25.860000000000014,73.1707
2013-08-28 0:16:26.67999999999995,73.1707
2013-08-28 0:16:27.5,73.1707
2013-08-28 0:16:28.32000000000005,74.0741
2013-08-28 0:16:29.129999999999995,74.0741
2013-08-28 0:16:29.940000000000055,75
2013-08-28 0:16:30.740000000000009,75.9494
2013-08-28 0:16:31.529999999999973,75.9494
2013-08-28 0:16:32.32000000000005,75
2013-08-28 0:16:33.120000000000005,76.9231
2013-08-28 0:16:33.899999999999977,76.9231
2013-08-28 0:16:34.67999999999995,77.9221
2013-08-28 0:16:35.450000000000045,76.9231
2013-08-28 0:16:36.230000000000018,76.9231
2013-08-28 0:16:37.009999999999991,77.9221
2013-08-28 0:16:37.779999999999973,77.9221
2013-08-28 0:16:38.549999999999955,75.9494
2013-08-28 0:16:39.340000000000032,75.9494
2013-08-28 0:16:40.129999999999995,75.9494
2013-08-28 0:16:40.919999999999959,75.9494
2013-08-28 0:16:41.710000000000036,75.9494
2013-08-28 0:16:42.5,76.9231
2013-08-28 0:16:43.279999999999973,77.9221
2013-08-28 0:16:44.049999999999955,77.9221
2013-08-28 0:16:44.82000000000005,77.9221
2013-08-28 0:16:45.590000000000032,78.9474
2013-08-28 0:16:46.350000000000023,77.9221
2013-08-28 0:16:47.120000000000005,77.9221
2013-08-28 0:16:47.889999999999986,75.9494
2013-08-28 0:16:48.67999999999995,76.9231
2013-08-28 0:16:49.460000000000036,75.9494
2013-08-28 0:16:50.25,75.9494
2013-08-28 0:16:51.039999999999964,76.9231
2013-08-28 0:16:51.82000000000005,75.9494
2013-08-28 0:16:52.610000000000014,75.9494
2013-08-28 0:16:53.399999999999977,77.9221
2013-08-28 0:16:54.169999999999959,76.9231
2013-08-28 0:16:54.950000000000045,76.9231
2013-08-28 0:16:55.730000000000018,75.9494
2013-08-28 0:16:56.519999999999982,75.9494
2013-08-28 0:16:57.309999999999945,76.9231
2013-08-28 0:16:58.090000000000032,75
2013-08-28 0:16:58.889999999999986,75.9494
2013-08-28 0:16:59.67999999999995,76.9231
2013-08-28 0:17:0.46000000000003638,75.9494
2013-08-28 0:17:1.25,75
2013-08-28 0:17:2.0499999999999545,75.9494
2013-08-28 0:17:2.8400000000000318,76.9231
2013-08-28 0:17:3.6200000000000045,75.9494
2013-08-28 0:17:4.4100000000000819,75.9494
2013-08-28 0:17:5.2000000000000455,76.9231
2013-08-28 0:17:5.9800000000000182,76.9231
2013-08-28 0:17:6.7599999999999909,76.9231
2013-08-28 0:17:7.5399999999999636,75
2013-08-28 0:17:8.3399999999999181,75.9494
2013-08-28 0:17:9.1300000000001091,76.9231
2013-08-28 0:17:9.9100000000000819,75.9494
2013-08-28 0:17:10.700000000000045,75
2013-08-28 0:17:11.5,75
2013-08-28 0:17:12.299999999999955,76.9231
2013-08-28 0:17:13.079999999999927,75
2013-08-28 0:17:13.880000000000109,74.0741
2013-08-28 0:17:14.690000000000055,75
2013-08-28 0:17:15.490000000000009,75
2013-08-28 0:17:16.289999999999964,75
2013-08-28 0:17:17.089999999999918,75.9494
2013-08-28 0:17:17.880000000000109,76.9231
2013-08-28 0:17:18.660000000000082,76.9231
2013-08-28 0:17:19.440000000000055,77.9221
2013-08-28 0:17:20.210000000000036,77.9221
2013-08-28 0:17:20.980000000000018,77.9221
2013-08-28 0:17:21.75,78.9474
2013-08-28 0:17:22.509999999999991,80
2013-08-28 0:17:23.259999999999991,78.9474
2013-08-28 0:17:24.019999999999982,77.9221
2013-08-28 0:17:24.789999999999964,74.0741
2013-08-28 0:17:25.599999999999909,77.9221
2013-08-28 0:17:26.369999999999891,76.9231
2013-08-28 0:17:27.150000000000091,76.9231
2013-08-28 0:17:27.930000000000064,76.9231
2013-08-28 0:17:28.710000000000036,77.9221
2013-08-28 0:17:29.480000000000018,77.9221
2013-08-28 0:17:30.25,76.9231
2013-08-28 0:17:31.029999999999973,76.9231
2013-08-28 0:17:31.809999999999945,78.9474
2013-08-28 0:17:32.569999999999936,77.9221
2013-08-28 0:17:33.339999999999918,76.9231
2013-08-28 0:17:34.119999999999891,76.9231
2013-08-28 0:17:34.900000000000091,78.9474
2013-08-28 0:17:35.660000000000082,77.9221
2013-08-28 0:17:36.430000000000064,77.9221
2013-08-28 0:17:37.200000000000045,77.9221
2013-08-28 0:17:37.970000000000027,78.9474
2013-08-28 0:17:38.730000000000018,77.9221
2013-08-28 0:17:39.5,77.9221
2013-08-28 0:17:40.269999999999982,78.9474
2013-08-28 0:17:41.029999999999973,80
2013-08-28 0:17:41.779999999999973,77.9221
2013-08-28 0:17:42.549999999999955,78.9474
2013-08-28 0:17:43.309999999999945,78.9474
2013-08-28 0:17:44.069999999999936,77.9221
2013-08-28 0:17:44.839999999999918,78.9474
2013-08-28 0:17:45.599999999999909,78.9474
2013-08-28 0:17:46.3599999999999,78.9474
2013-08-28 0:17:47.119999999999891,77.9221
2013-08-28 0:17:47.8900000000001,78.9474
2013-08-28 0:17:48.650000000000091,80
2013-08-28 0:17:49.400000000000091,78.9474
2013-08-28 0:17:50.160000000000082,80
2013-08-28 0:17:50.910000000000082,81.0811
2013-08-28 0:17:51.650000000000091,80
2013-08-28 0:17:52.400000000000091,78.9474
2013-08-28 0:17:53.160000000000082,80
2013-08-28 0:17:53.910000000000082,80
2013-08-28 0:17:54.660000000000082,78.9474
2013-08-28 0:17:55.420000000000073,78.9474
2013-08-28 0:17:56.180000000000064,80
2013-08-28 0:17:56.930000000000064,80
2013-08-28 0:17:57.680000000000064,78.9474
2013-08-28 0:17:58.440000000000055,78.9474
2013-08-28 0:17:59.200000000000045,77.9221
2013-08-28 0:17:59.970000000000027,78.9474
2013-08-28 0:18:0.73000000000001819,76.9231
2013-08-28 0:18:1.5099999999999909,75.9494
2013-08-28 0:18:2.2999999999999545,77.9221
2013-08-28 0:18:3.0699999999999363,76.9231
2013-08-28 0:18:3.8499999999999091,75.9494
2013-08-28 0:18:4.6400000000001,75.9494
2013-08-28 0:18:5.4300000000000637,77.9221
2013-08-28 0:18:6.2000000000000455,76.9231
2013-08-28 0:18:6.9800000000000182,77.9221
2013-08-28 0:18:7.75,76.9231
2013-08-28 0:18:8.5299999999999727,78.9474
2013-08-28 0:18:9.2899999999999636,76.9231
2013-08-28 0:18:10.069999999999936,76.9231
2013-08-28 0:18:10.849999999999909,77.9221
2013-08-28 0:18:11.619999999999891,77.9221
2013-08-28 0:18:12.3900000000001,76.9231
2013-08-28 0:18:13.170000000000073,78.9474
2013-08-28 0:18:13.930000000000064,77.9221
2013-08-28 0:18:14.700000000000045,77.9221
2013-08-28 0:18:15.470000000000027,76.9231
2013-08-28 0:18:16.25,77.9221
2013-08-28 0:18:17.019999999999982,76.9231
2013-08-28 0:18:17.799999999999955,75.9494
2013-08-28 0:18:18.589999999999918,77.9221
2013-08-28 0:18:19.3599999999999,77.9221
2013-08-28 0:18:20.130000000000109,76.9231
2013-08-28 0:18:20.910000000000082,77.9221
2013-08-28 0:18:21.680000000000064,78.9474
2013-08-28 0:18:22.440000000000055,80
2013-08-28 0:18:23.190000000000055,77.9221
2013-08-28 0:18:23.960000000000036,78.9474
2013-08-28 0:18:24.720000000000027,78.9474
2013-08-28 0:18:25.480000000000018,78.9474
2013-08-28 0:18:26.240000000000009,77.9221
2013-08-28 0:18:27.009999999999991,78.9474
2013-08-28 0:18:27.769999999999982,77.9221
2013-08-28 0:18:28.539999999999964,78.9474
2013-08-28 0:18:29.299999999999955,76.9231
2013-08-28 0:18:30.079999999999927,75.9494
2013-08-28 0:18:30.869999999999891,76.9231
2013-08-28 0:18:31.650000000000091,76.9231
2013-08-28 0:18:32.430000000000064,75.9494
2013-08-28 0:18:33.220000000000027,75.9494
2013-08-28 0:18:34.009999999999991,75.9494
2013-08-28 0:18:34.799999999999955,75.9494
2013-08-28 0:18:35.589999999999918,74.0741
2013-08-28 0:18:36.400000000000091,75.9494
2013-08-28 0:18:37.190000000000055,76.9231
2013-08-28 0:18:37.970000000000027,74.0741
2013-08-28 0:18:38.779999999999973,75
2013-08-28 0:18:39.579999999999927,75.9494
2013-08-28 0:18:40.369999999999891,76.9231
2013-08-28 0:18:41.150000000000091,75.9494
2013-08-28 0:18:41.940000000000055,75.9494
2013-08-28 0:18:42.730000000000018,77.9221
2013-08-28 0:18:43.5,75.9494
2013-08-28 0:18:44.289999999999964,76.9231
2013-08-28 0:18:45.069999999999936,76.9231
2013-08-28 0:18:45.849999999999909,78.9474
2013-08-28 0:18:46.6099999999999,76.9231
2013-08-28 0:18:47.3900000000001,74.0741
2013-08-28 0:18:48.200000000000045,72.2892
2013-08-28 0:18:49.029999999999973,73.1707
2013-08-28 0:18:49.849999999999909,74.0741
2013-08-28 0:18:50.660000000000082,72.2892
2013-08-28 0:18:51.490000000000009,74.0741
2013-08-28 0:18:52.299999999999955,74.0741
2013-08-28 0:18:53.1099999999999,74.0741
2013-08-28 0:18:53.920000000000073,73.1707
2013-08-28 0:18:54.740000000000009,75.9494
2013-08-28 0:18:55.529999999999973,75.9494
2013-08-28 0:18:56.319999999999936,75.9494
2013-08-28 0:18:57.1099999999999,75.9494
2013-08-28 0:18:57.900000000000091,75.9494
2013-08-28 0:18:58.690000000000055,75.9494
2013-08-28 0:18:59.480000000000018,75.9494
2013-08-28 0:19:0.26999999999998181,74.0741
2013-08-28 0:19:1.0799999999999272,75.9494
2013-08-28 0:19:1.8699999999998909,75
2013-08-28 0:19:2.6700000000000728,73.1707
2013-08-28 0:19:3.4900000000000091,75
2013-08-28 0:19:4.2899999999999636,75.9494
2013-08-28 0:19:5.0799999999999272,75
2013-08-28 0:19:5.8800000000001091,75
2013-08-28 0:19:6.6800000000000637,76.9231
2013-08-28 0:19:7.4600000000000364,75.9494
2013-08-28 0:19:8.25,75.9494
2013-08-28 0:19:9.0399999999999636,75.9494
2013-08-28 0:19:9.8299999999999272,76.9231
2013-08-28 0:19:10.6099999999999,74.0741
2013-08-28 0:19:11.420000000000073,75
2013-08-28 0:19:12.220000000000027,76.9231
2013-08-28 0:19:13.0,76.9231
2013-08-28 0:19:13.779999999999973,75.9494
2013-08-28 0:19:14.569999999999936,75
2013-08-28 0:19:15.369999999999891,75.9494
2013-08-28 0:19:16.160000000000082,75.9494
2013-08-28 0:19:16.950000000000045,75
2013-08-28 0:19:17.75,76.9231
2013-08-28 0:19:18.529999999999973,75.9494
2013-08-28 0:19:19.319999999999936,75.9494
2013-08-28 0:19:20.1099999999999,77.9221
2013-08-28 0:19:20.880000000000109,75.9494
2013-08-28 0:19:21.670000000000073,76.9231
2013-08-28 0:19:22.450000000000045,77.9221
2013-08-28 0:19:23.220000000000027,78.9474
2013-08-28 0:19:23.980000000000018,77.9221
2013-08-28 0:19:24.75,77.9221
2013-08-28 0:19:25.519999999999982,77.9221
2013-08-28 0:19:26.289999999999964,77.9221
2013-08-28 0:19:27.059999999999945,80
2013-08-28 0:19:27.809999999999945,76.9231
2013-08-28 0:19:28.589999999999918,76.9231
2013-08-28 0:19:29.369999999999891,77.9221
2013-08-28 0:19:30.1400000000001,77.9221
2013-08-28 0:19:30.910000000000082,76.9231
2013-08-28 0:19:31.690000000000055,75.9494
2013-08-28 0:19:32.480000000000018,75.9494
2013-08-28 0:19:33.269999999999982,75.9494
2013-08-28 0:19:34.059999999999945,75
2013-08-28 0:19:34.8599999999999,74.0741
2013-08-28 0:19:35.670000000000073,75
2013-08-28 0:19:36.470000000000027,74.0741
2013-08-28 0:19:37.279999999999973,75
2013-08-28 0:19:38.079999999999927,76.9231
2013-08-28 0:19:38.8599999999999,76.9231
2013-08-28 0:19:39.6400000000001,76.9231
2013-08-28 0:19:40.420000000000073,78.9474
2013-08-28 0:19:41.180000000000064,80
2013-08-28 0:19:41.930000000000064,78.9474
2013-08-28 0:19:42.690000000000055,78.9474
2013-08-28 0:19:43.450000000000045,81.0811
2013-08-28 0:19:44.190000000000055,80
2013-08-28 0:19:44.940000000000055,77.9221
2013-08-28 0:19:45.710000000000036,77.9221
2013-08-28 0:19:46.480000000000018,76.9231
2013-08-28 0:19:47.259999999999991,76.9231
2013-08-28 0:19:48.039999999999964,75.9494
2013-08-28 0:19:48.829999999999927,76.9231
2013-08-28 0:19:49.6099999999999,75.9494
2013-08-28 0:19:50.400000000000091,76.9231
2013-08-28 0:19:51.180000000000064,77.9221
2013-08-28 0:19:51.950000000000045,78.9474
2013-08-28 0:19:52.710000000000036,78.9474
2013-08-28 0:19:53.470000000000027,78.9474
2013-08-28 0:19:54.230000000000018,80
2013-08-28 0:19:54.980000000000018,78.9474
2013-08-28 0:19:55.740000000000009,76.9231
2013-08-28 0:19:56.519999999999982,76.9231
2013-08-28 0:19:57.299999999999955,77.9221
2013-08-28 0:19:58.069999999999936,75.9494
2013-08-28 0:19:58.8599999999999,75
2013-08-28 0:19:59.660000000000082,74.0741
2013-08-28 0:20:0.47000000000002728,75
2013-08-28 0:20:1.2699999999999818,76.9231
2013-08-28 0:20:2.0499999999999545,75
2013-08-28 0:20:2.8499999999999091,76.9231
2013-08-28 0:20:3.6300000000001091,77.9221
2013-08-28 0:20:4.4000000000000909,78.9474
2013-08-28 0:20:5.1600000000000819,77.9221
2013-08-28 0:20:5.9300000000000637,78.9474
2013-08-28 0:20:6.6900000000000546,77.9221
2013-08-28 0:20:7.4600000000000364,78.9474
2013-08-28 0:20:8.2200000000000273,75.9494
2013-08-28 0:20:9.0099999999999909,74.0741
2013-08-28 0:20:9.8199999999999363,76.9231
2013-08-28 0:20:10.599999999999909,75.9494
2013-08-28 0:20:11.3900000000001,75
2013-08-28 0:20:12.190000000000055,75
2013-08-28 0:20:12.990000000000009,75.9494
2013-08-28 0:20:13.779999999999973,75
2013-08-28 0:20:14.579999999999927,72.2892
2013-08-28 0:20:15.410000000000082,72.2892
2013-08-28 0:20:16.240000000000009,75
2013-08-28 0:20:17.039999999999964,72.2892
2013-08-28 0:20:17.869999999999891,72.2892
2013-08-28 0:20:18.700000000000045,73.1707
2013-08-28 0:20:19.519999999999982,72.2892
2013-08-28 0:20:20.349999999999909,72.2892
2013-08-28 0:20:21.180000000000064,74.0741
2013-08-28 0:20:21.990000000000009,73.1707
2013-08-28 0:20:22.809999999999945,73.1707
2013-08-28 0:20:23.630000000000109,74.0741
2013-08-28 0:20:24.440000000000055,73.1707
2013-08-28 0:20:25.259999999999991,73.1707
2013-08-28 0:20:26.079999999999927,73.1707
2013-08-28 0:20:26.900000000000091,74.0741
2013-08-28 0:20:27.710000000000036,72.2892
2013-08-28 0:20:28.539999999999964,72.2892
2013-08-28 0:20:29.369999999999891,71.4286
2013-08-28 0:20:30.210000000000036,72.2892
2013-08-28 0:20:31.039999999999964,71.4286
2013-08-28 0:20:31.880000000000109,72.2892
2013-08-28 0:20:32.710000000000036,71.4286
2013-08-28 0:20:33.549999999999955,72.2892
2013-08-28 0:20:34.380000000000109,71.4286
2013-08-28 0:20:35.220000000000027,70.5882
2013-08-28 0:20:36.069999999999936,69.7674
2013-08-28 0:20:36.930000000000064,67.4157
2013-08-28 0:20:37.819999999999936,68.1818
2013-08-28 0:20:38.700000000000045,65.9341
2013-08-28 0:20:39.6099999999999,65.2174
2013-08-28 0:20:40.529999999999973,64.5161
2013-08-28 0:20:41.460000000000036,64.5161
2013-08-28 0:20:42.3900000000001,63.8298
2013-08-28 0:20:43.329999999999927,64.5161
2013-08-28 0:20:44.259999999999991,67.4157
2013-08-28 0:20:45.150000000000091,67.4157
2013-08-28 0:20:46.039999999999964,73.1707
2013-08-28 0:20:46.8599999999999,73.1707
2013-08-28 0:20:47.680000000000064,74.0741
2013-08-28 0:20:48.490000000000009,77.9221
2013-08-28 0:20:49.259999999999991,75.9494
2013-08-28 0:20:50.049999999999955,75.9494
2013-08-28 0:20:50.839999999999918,75
2013-08-28 0:20:51.6400000000001,74.0741
2013-08-28 0:20:52.450000000000045,70.5882
2013-08-28 0:20:53.299999999999955,71.4286
2013-08-28 0:20:54.1400000000001,71.4286
2013-08-28 0:20:54.980000000000018,69.7674
2013-08-28 0:20:55.839999999999918,67.4157
2013-08-28 0:20:56.730000000000018,68.9655
2013-08-28 0:20:57.599999999999909,68.1818
2013-08-28 0:20:58.480000000000018,65.9341
2013-08-28 0:20:59.3900000000001,65.9341
2013-08-28 0:21:0.29999999999995453,67.4157
2013-08-28 0:21:1.1900000000000546,65.9341
2013-08-28 0:21:2.0999999999999091,65.9341
2013-08-28 0:21:3.0099999999999909,67.4157
2013-08-28 0:21:3.9000000000000909,67.4157
2013-08-28 0:21:4.7899999999999636,67.4157
2013-08-28 0:21:5.6800000000000637,69.7674
2013-08-28 0:21:6.5399999999999636,68.9655
2013-08-28 0:21:7.4100000000000819,69.7674
2013-08-28 0:21:8.2699999999999818,71.4286
2013-08-28 0:21:9.1099999999999,71.4286
2013-08-28 0:21:9.9500000000000455,72.2892
2013-08-28 0:21:10.779999999999973,73.1707
2013-08-28 0:21:11.599999999999909,73.1707
2013-08-28 0:21:12.420000000000073,74.0741
2013-08-28 0:21:13.230000000000018,74.0741
2013-08-28 0:21:14.039999999999964,75
2013-08-28 0:21:14.839999999999918,76.9231
2013-08-28 0:21:15.619999999999891,78.9474
2013-08-28 0:21:16.380000000000109,77.9221
2013-08-28 0:21:17.150000000000091,76.9231
2013-08-28 0:21:17.930000000000064,76.9231
2013-08-28 0:21:18.710000000000036,76.9231
2013-08-28 0:21:19.490000000000009,75.9494
2013-08-28 0:21:20.279999999999973,75
2013-08-28 0:21:21.079999999999927,75.9494
2013-08-28 0:21:21.869999999999891,76.9231
2013-08-28 0:21:22.650000000000091,74.0741
2013-08-28 0:21:23.460000000000036,72.2892
2013-08-28 0:21:24.289999999999964,72.2892
2013-08-28 0:21:25.119999999999891,73.1707
2013-08-28 0:21:25.940000000000055,71.4286
2013-08-28 0:21:26.779999999999973,72.2892
2013-08-28 0:21:27.6099999999999,72.2892
2013-08-28 0:21:28.440000000000055,72.2892
2013-08-28 0:21:29.269999999999982,73.1707
2013-08-28 0:21:30.089999999999918,75
2013-08-28 0:21:30.8900000000001,73.1707
2013-08-28 0:21:31.710000000000036,73.1707
2013-08-28 0:21:32.529999999999973,74.0741
2013-08-28 0:21:33.339999999999918,75
2013-08-28 0:21:34.1400000000001,74.0741
2013-08-28 0:21:34.950000000000045,73.1707
2013-08-28 0:21:35.769999999999982,72.2892
2013-08-28 0:21:36.599999999999909,73.1707
2013-08-28 0:21:37.420000000000073,70.5882
2013-08-28 0:21:38.269999999999982,69.7674
2013-08-28 0:21:39.130000000000109,68.9655
2013-08-28 0:21:40.0,68.1818
2013-08-28 0:21:40.880000000000109,69.7674
2013-08-28 0:21:41.740000000000009,68.1818
2013-08-28 0:21:42.619999999999891,68.9655
2013-08-28 0:21:43.490000000000009,68.9655
2013-08-28 0:21:44.3599999999999,68.9655
2013-08-28 0:21:45.230000000000018,68.1818
2013-08-28 0:21:46.1099999999999,68.1818
2013-08-28 0:21:46.990000000000009,68.1818
2013-08-28 0:21:47.869999999999891,69.7674
2013-08-28 0:21:48.730000000000018,72.2892
2013-08-28 0:21:49.559999999999945,72.2892
2013-08-28 0:21:50.3900000000001,74.0741
2013-08-28 0:21:51.200000000000045,75.9494
2013-08-28 0:21:51.990000000000009,75.9494
2013-08-28 0:21:52.779999999999973,75
2013-08-28 0:21:53.579999999999927,75
2013-08-28 0:21:54.380000000000109,74.0741
2013-08-28 0:21:55.190000000000055,75
2013-08-28 0:21:55.990000000000009,73.1707
2013-08-28 0:21:56.809999999999945,74.0741
2013-08-28 0:21:57.619999999999891,74.0741
2013-08-28 0:21:58.430000000000064,72.2892
2013-08-28 0:21:59.259999999999991,73.1707
2013-08-28 0:22:0.07999999999992724,73.1707
2013-08-28 0:22:0.90000000000009095,70.5882
2013-08-28 0:22:1.75,71.4286
2013-08-28 0:22:2.5899999999999181,71.4286
2013-08-28 0:22:3.4300000000000637,71.4286
2013-08-28 0:22:4.2699999999999818,69.7674
2013-08-28 0:22:5.1300000000001091,67.4157
2013-08-28 0:22:6.0199999999999818,68.1818
2013-08-28 0:22:6.9000000000000909,67.4157
2013-08-28 0:22:7.7899999999999636,67.4157
2013-08-28 0:22:8.6800000000000637,68.1818
2013-08-28 0:22:9.5599999999999454,68.1818
2013-08-28 0:22:10.440000000000055,67.4157
2013-08-28 0:22:11.329999999999927,69.7674
2013-08-28 0:22:12.190000000000055,68.9655
2013-08-28 0:22:13.059999999999945,68.9655
2013-08-28 0:22:13.930000000000064,70.5882
2013-08-28 0:22:14.779999999999973,72.2892
2013-08-28 0:22:15.6099999999999,71.4286
2013-08-28 0:22:16.450000000000045,73.1707
2013-08-28 0:22:17.269999999999982,74.0741
2013-08-28 0:22:18.079999999999927,74.0741
2013-08-28 0:22:18.8900000000001,72.2892
2013-08-28 0:22:19.720000000000027,72.2892
2013-08-28 0:22:20.549999999999955,72.2892
2013-08-28 0:22:21.380000000000109,70.5882
2013-08-28 0:22:22.230000000000018,69.7674
2013-08-28 0:22:23.089999999999918,68.9655
2013-08-28 0:22:23.960000000000036,70.5882
2013-08-28 0:22:24.809999999999945,68.9655
2013-08-28 0:22:25.680000000000064,69.7674
2013-08-28 0:22:26.539999999999964,70.5882
2013-08-28 0:22:27.3900000000001,71.4286
2013-08-28 0:22:28.230000000000018,69.7674
2013-08-28 0:22:29.089999999999918,67.4157
2013-08-28 0:22:29.980000000000018,68.1818
2013-08-28 0:22:30.8599999999999,65.9341
2013-08-28 0:22:31.769999999999982,65.9341
2013-08-28 0:22:32.680000000000064,63.8298
2013-08-28 0:22:33.619999999999891,64.5161
2013-08-28 0:22:34.549999999999955,65.9341
2013-08-28 0:22:35.460000000000036,65.2174
2013-08-28 0:22:36.380000000000109,65.9341
2013-08-28 0:22:37.289999999999964,65.9341
2013-08-28 0:22:38.200000000000045,67.4157
2013-08-28 0:22:39.089999999999918,68.1818
2013-08-28 0:22:39.970000000000027,68.9655
2013-08-28 0:22:40.839999999999918,68.1818
2013-08-28 0:22:41.720000000000027,67.4157
2013-08-28 0:22:42.6099999999999,68.1818
2013-08-28 0:22:43.490000000000009,68.9655
2013-08-28 0:22:44.3599999999999,67.4157
2013-08-28 0:22:45.25,67.4157
2013-08-28 0:22:46.1400000000001,68.9655
2013-08-28 0:22:47.009999999999991,67.4157
2013-08-28 0:22:47.900000000000091,68.1818
2013-08-28 0:22:48.779999999999973,70.5882
2013-08-28 0:22:49.630000000000109,69.7674
2013-08-28 0:22:50.490000000000009,71.4286
2013-08-28 0:22:51.329999999999927,72.2892
2013-08-28 0:22:52.160000000000082,71.4286
2013-08-28 0:22:53.0,74.0741
2013-08-28 0:22:53.809999999999945,75
2013-08-28 0:22:54.6099999999999,74.0741
2013-08-28 0:22:55.420000000000073,76.9231
2013-08-28 0:22:56.200000000000045,77.9221
2013-08-28 0:22:56.970000000000027,77.9221
2013-08-28 0:22:57.740000000000009,77.9221
2013-08-28 0:22:58.509999999999991,80
2013-08-28 0:22:59.259999999999991,77.9221
2013-08-28 0:23:0.029999999999972715,76.9231
2013-08-28 0:23:0.80999999999994543,77.9221
2013-08-28 0:23:1.5799999999999272,77.9221
2013-08-28 0:23:2.3499999999999091,77.9221
2013-08-28 0:23:3.1199999999998909,75.9494
2013-08-28 0:23:3.9100000000000819,77.9221
2013-08-28 0:23:4.6800000000000637,76.9231
2013-08-28 0:23:5.4600000000000364,76.9231
2013-08-28 0:23:6.2400000000000091,75.9494
2013-08-28 0:23:7.0299999999999727,77.9221
2013-08-28 0:23:7.7999999999999545,75.9494
2013-08-28 0:23:8.5899999999999181,76.9231
2013-08-28 0:23:9.3699999999998909,76.9231
2013-08-28 0:23:10.150000000000091,77.9221
2013-08-28 0:23:10.920000000000073,77.9221
2013-08-28 0:23:11.690000000000055,76.9231
2013-08-28 0:23:12.470000000000027,77.9221
2013-08-28 0:23:13.240000000000009,78.9474
2013-08-28 0:23:14.0,78.9474
2013-08-28 0:23:14.759999999999991,78.9474
2013-08-28 0:23:15.519999999999982,77.9221
2013-08-28 0:23:16.289999999999964,78.9474
2013-08-28 0:23:17.049999999999955,80
2013-08-28 0:23:17.799999999999955,77.9221
2013-08-28 0:23:18.569999999999936,77.9221
2013-08-28 0:23:19.339999999999918,77.9221
2013-08-28 0:23:20.1099999999999,80
2013-08-28 0:23:20.8599999999999,78.9474
2013-08-28 0:23:21.619999999999891,78.9474
2013-08-28 0:23:22.380000000000109,77.9221
2013-08-28 0:23:23.150000000000091,77.9221
2013-08-28 0:23:23.920000000000073,76.9231
2013-08-28 0:23:24.700000000000045,75
2013-08-28 0:23:25.5,73.1707
2013-08-28 0:23:26.319999999999936,72.2892
2013-08-28 0:23:27.150000000000091,71.4286
2013-08-28 0:23:27.990000000000009,68.9655
2013-08-28 0:23:28.8599999999999,68.9655
2013-08-28 0:23:29.730000000000018,69.7674
2013-08-28 0:23:30.589999999999918,70.5882
2013-08-28 0:23:31.440000000000055,68.9655
2013-08-28 0:23:32.309999999999945,71.4286
2013-08-28 0:23:33.150000000000091,70.5882
2013-08-28 0:23:34.0,70.5882
2013-08-28 0:23:34.849999999999909,72.2892
2013-08-28 0:23:35.680000000000064,72.2892
2013-08-28 0:23:36.509999999999991,71.4286
2013-08-28 0:23:37.349999999999909,71.4286
2013-08-28 0:23:38.190000000000055,73.1707
2013-08-28 0:23:39.009999999999991,74.0741
2013-08-28 0:23:39.819999999999936,72.2892
2013-08-28 0:23:40.650000000000091,74.0741
2013-08-28 0:23:41.460000000000036,75
2013-08-28 0:23:42.259999999999991,75.9494
2013-08-28 0:23:43.049999999999955,75.9494
2013-08-28 0:23:43.839999999999918,77.9221
2013-08-28 0:23:44.6099999999999,77.9221
2013-08-28 0:23:45.380000000000109,75.9494
2013-08-28 0:23:46.170000000000073,77.9221
2013-08-28 0:23:46.940000000000055,78.9474
2013-08-28 0:23:47.700000000000045,77.9221
2013-08-28 0:23:48.470000000000027,76.9231
2013-08-28 0:23:49.25,77.9221
2013-08-28 0:23:50.019999999999982,77.9221
2013-08-28 0:23:50.789999999999964,75.9494
2013-08-28 0:23:51.579999999999927,76.9231
2013-08-28 0:23:52.3599999999999,75.9494
2013-08-28 0:23:53.150000000000091,77.9221
2013-08-28 0:23:53.920000000000073,75
2013-08-28 0:23:54.720000000000027,75.9494
2013-08-28 0:23:55.509999999999991,75
2013-08-28 0:23:56.309999999999945,75.9494
2013-08-28 0:23:57.099999999999909,74.0741
2013-08-28 0:23:57.910000000000082,74.0741
2013-08-28 0:23:58.720000000000027,73.1707
2013-08-28 0:23:59.539999999999964,74.0741
2013-08-28 0:24:0.34999999999990905,72.2892
2013-08-28 0:24:1.1800000000000637,71.4286
2013-08-28 0:24:2.0199999999999818,72.2892
2013-08-28 0:24:2.8499999999999091,71.4286
2013-08-28 0:24:3.6900000000000546,71.4286
2013-08-28 0:24:4.5299999999999727,70.5882
2013-08-28 0:24:5.3800000000001091,70.5882
2013-08-28 0:24:6.2300000000000182,70.5882
2013-08-28 0:24:7.0799999999999272,70.5882
2013-08-28 0:24:7.9300000000000637,71.4286
2013-08-28 0:24:8.7699999999999818,70.5882
2013-08-28 0:24:9.6199999999998909,70.5882
2013-08-28 0:24:10.470000000000027,68.1818
2013-08-28 0:24:11.349999999999909,71.4286
2013-08-28 0:24:12.190000000000055,71.4286
2013-08-28 0:24:13.029999999999973,70.5882
2013-08-28 0:24:13.880000000000109,69.7674
2013-08-28 0:24:14.740000000000009,70.5882
2013-08-28 0:24:15.589999999999918,68.9655
2013-08-28 0:24:16.460000000000036,70.5882
2013-08-28 0:24:17.309999999999945,71.4286
2013-08-28 0:24:18.150000000000091,72.2892
2013-08-28 0:24:18.980000000000018,70.5882
2013-08-28 0:24:19.829999999999927,70.5882
2013-08-28 0:24:20.680000000000064,72.2892
2013-08-28 0:24:21.509999999999991,72.2892
2013-08-28 0:24:22.339999999999918,71.4286
2013-08-28 0:24:23.180000000000064,72.2892
2013-08-28 0:24:24.009999999999991,73.1707
2013-08-28 0:24:24.829999999999927,75
2013-08-28 0:24:25.630000000000109,74.0741
2013-08-28 0:24:26.440000000000055,75
2013-08-28 0:24:27.240000000000009,75.9494
2013-08-28 0:24:28.029999999999973,75.9494
2013-08-28 0:24:28.819999999999936,75
2013-08-28 0:24:29.619999999999891,75
2013-08-28 0:24:30.420000000000073,74.0741
2013-08-28 0:24:31.230000000000018,73.1707
2013-08-28 0:24:32.049999999999955,72.2892
2013-08-28 0:24:32.880000000000109,73.1707
2013-08-28 0:24:33.700000000000045,74.0741
2013-08-28 0:24:34.509999999999991,73.1707
2013-08-28 0:24:35.329999999999927,73.1707
2013-08-28 0:24:36.150000000000091,73.1707
2013-08-28 0:24:36.970000000000027,75
2013-08-28 0:24:37.769999999999982,73.1707
2013-08-28 0:24:38.589999999999918,73.1707
2013-08-28 0:24:39.410000000000082,74.0741
2013-08-28 0:24:40.220000000000027,73.1707
2013-08-28 0:24:41.039999999999964,72.2892
2013-08-28 0:24:41.869999999999891,73.1707
2013-08-28 0:24:42.690000000000055,73.1707
2013-08-28 0:24:43.509999999999991,74.0741
2013-08-28 0:24:44.319999999999936,73.1707
2013-08-28 0:24:45.1400000000001,74.0741
2013-08-28 0:24:45.950000000000045,74.0741
2013-08-28 0:24:46.759999999999991,74.0741
2013-08-28 0:24:47.569999999999936,75
2013-08-28 0:24:48.369999999999891,74.0741
2013-08-28 0:24:49.180000000000064,74.0741
2013-08-28 0:24:49.990000000000009,74.0741
2013-08-28 0:24:50.799999999999955,74.0741
2013-08-28 0:24:51.6099999999999,75
2013-08-28 0:24:52.410000000000082,73.1707
2013-08-28 0:24:53.230000000000018,73.1707
2013-08-28 0:24:54.049999999999955,73.1707
2013-08-28 0:24:54.869999999999891,74.0741
2013-08-28 0:24:55.680000000000064,73.1707
2013-08-28 0:24:56.5,74.0741
2013-08-28 0:24:57.309999999999945,75
2013-08-28 0:24:58.1099999999999,75.9494
2013-08-28 0:24:58.900000000000091,73.1707
2013-08-28 0:24:59.720000000000027,71.4286
2013-08-28 0:25:0.55999999999994543,70.5882
2013-08-28 0:25:1.4100000000000819,69.7674
2013-08-28 0:25:2.2699999999999818,68.9655
2013-08-28 0:25:3.1400000000001,68.1818
2013-08-28 0:25:4.0199999999999818,68.1818
2013-08-28 0:25:4.9000000000000909,68.9655
2013-08-28 0:25:5.7699999999999818,69.7674
2013-08-28 0:25:6.6300000000001091,73.1707
2013-08-28 0:25:7.4500000000000455,70.5882
2013-08-28 0:25:8.2999999999999545,71.4286
2013-08-28 0:25:9.1400000000001,71.4286
2013-08-28 0:25:9.9800000000000182,72.2892
2013-08-28 0:25:10.809999999999945,72.2892
2013-08-28 0:25:11.6400000000001,72.2892
2013-08-28 0:25:12.470000000000027,74.0741
2013-08-28 0:25:13.279999999999973,73.1707
2013-08-28 0:25:16.440000000000055,77.9221
2013-08-28 0:25:17.210000000000036,78.9474
2013-08-28 0:25:17.970000000000027,81.0811
2013-08-28 0:25:18.710000000000036,80
2013-08-28 0:25:19.460000000000036,78.9474
2013-08-28 0:25:20.220000000000027,77.9221
2013-08-28 0:25:20.990000000000009,77.9221
2013-08-28 0:25:21.759999999999991,78.9474
2013-08-28 0:25:22.519999999999982,76.9231
2013-08-28 0:25:23.299999999999955,77.9221
2013-08-28 0:25:24.069999999999936,76.9231
2013-08-28 0:25:24.849999999999909,76.9231
2013-08-28 0:25:25.630000000000109,76.9231
2013-08-28 0:25:26.410000000000082,76.9231
2013-08-28 0:25:27.190000000000055,76.9231
2013-08-28 0:25:27.970000000000027,75.9494
2013-08-28 0:25:28.759999999999991,76.9231
2013-08-28 0:25:29.539999999999964,77.9221
2013-08-28 0:25:30.309999999999945,77.9221
2013-08-28 0:25:31.079999999999927,77.9221
2013-08-28 0:25:31.849999999999909,76.9231
2013-08-28 0:25:32.630000000000109,78.9474
2013-08-28 0:25:33.3900000000001,76.9231
2013-08-28 0:25:34.170000000000073,77.9221
2013-08-28 0:25:34.940000000000055,76.9231
2013-08-28 0:25:35.720000000000027,76.9231
2013-08-28 0:25:36.5,76.9231
2013-08-28 0:25:37.279999999999973,76.9231
2013-08-28 0:25:38.059999999999945,75
2013-08-28 0:25:38.8599999999999,74.0741
2013-08-28 0:25:39.670000000000073,74.0741
2013-08-28 0:25:40.480000000000018,74.0741
2013-08-28 0:25:41.289999999999964,73.1707
2013-08-28 0:25:42.1099999999999,75
2013-08-28 0:25:42.910000000000082,75
2013-08-28 0:25:43.710000000000036,74.0741
2013-08-28 0:25:44.519999999999982,75.9494
2013-08-28 0:25:45.309999999999945,74.0741
2013-08-28 0:25:46.119999999999891,73.1707
2013-08-28 0:25:46.940000000000055,69.7674
2013-08-28 0:25:47.799999999999955,70.5882
2013-08-28 0:25:48.650000000000091,66.6667
2013-08-28 0:25:49.549999999999955,67.4157
2013-08-28 0:25:50.440000000000055,66.6667
2013-08-28 0:25:51.339999999999918,66.6667
2013-08-28 0:25:52.240000000000009,67.4157
2013-08-28 0:25:53.130000000000109,66.6667
2013-08-28 0:25:54.029999999999973,67.4157
2013-08-28 0:25:54.920000000000073,65.9341
2013-08-28 0:25:55.829999999999927,66.6667
2013-08-28 0:25:56.730000000000018,65.9341
2013-08-28 0:25:57.6400000000001,66.6667
2013-08-28 0:25:58.539999999999964,68.1818
2013-08-28 0:25:59.420000000000073,68.1818
2013-08-28 0:26:0.29999999999995453,70.5882
2013-08-28 0:26:1.1500000000000909,71.4286
2013-08-28 0:26:1.9900000000000091,73.1707
2013-08-28 0:26:2.8099999999999454,74.0741
2013-08-28 0:26:3.6199999999998909,75.9494
2013-08-28 0:26:4.4100000000000819,75
2013-08-28 0:26:5.2100000000000364,76.9231
2013-08-28 0:26:5.9900000000000091,76.9231
2013-08-28 0:26:6.7699999999999818,75.9494
2013-08-28 0:26:7.5599999999999454,76.9231
2013-08-28 0:26:8.3399999999999181,76.9231
2013-08-28 0:26:9.1199999999998909,76.9231
2013-08-28 0:26:9.9000000000000909,74.0741
2013-08-28 0:26:10.710000000000036,75.9494
2013-08-28 0:26:11.5,75.9494
2013-08-28 0:26:12.289999999999964,75.9494
2013-08-28 0:26:13.079999999999927,74.0741
2013-08-28 0:26:13.8900000000001,74.0741
2013-08-28 0:26:14.700000000000045,75
2013-08-28 0:26:15.5,74.0741
2013-08-28 0:26:16.309999999999945,74.0741
2013-08-28 0:26:17.119999999999891,72.2892
2013-08-28 0:26:17.950000000000045,72.2892
2013-08-28 0:26:18.779999999999973,70.5882
2013-08-28 0:26:19.630000000000109,70.5882
2013-08-28 0:26:20.480000000000018,71.4286
2013-08-28 0:26:21.319999999999936,70.5882
2013-08-28 0:26:22.170000000000073,73.1707
2013-08-28 0:26:22.990000000000009,75
2013-08-28 0:26:23.789999999999964,75.9494
2013-08-28 0:26:24.579999999999927,75
2013-08-28 0:26:25.380000000000109,75.9494
2013-08-28 0:26:26.170000000000073,75
2013-08-28 0:26:26.970000000000027,73.1707
2013-08-28 0:26:27.789999999999964,72.2892
2013-08-28 0:26:28.619999999999891,70.5882
2013-08-28 0:26:29.470000000000027,71.4286
2013-08-28 0:26:30.309999999999945,71.4286
2013-08-28 0:26:31.150000000000091,70.5882
2013-08-28 0:26:32.0,72.2892
2013-08-28 0:26:32.829999999999927,71.4286
2013-08-28 0:26:33.670000000000073,69.7674
2013-08-28 0:26:34.529999999999973,71.4286
2013-08-28 0:26:35.369999999999891,71.4286
2013-08-28 0:26:36.210000000000036,70.5882
2013-08-28 0:26:37.059999999999945,69.7674
2013-08-28 0:26:37.920000000000073,71.4286
2013-08-28 0:26:38.759999999999991,71.4286
2013-08-28 0:26:39.599999999999909,71.4286
2013-08-28 0:26:40.440000000000055,73.1707
2013-08-28 0:26:41.259999999999991,74.0741
2013-08-28 0:26:42.069999999999936,73.1707
2013-08-28 0:26:42.8900000000001,75.9494
2013-08-28 0:26:43.680000000000064,76.9231
2013-08-28 0:26:44.460000000000036,75
2013-08-28 0:26:45.259999999999991,76.9231
2013-08-28 0:26:46.039999999999964,77.9221
2013-08-28 0:26:46.809999999999945,78.9474
2013-08-28 0:26:47.569999999999936,77.9221
2013-08-28 0:26:48.339999999999918,77.9221
2013-08-28 0:26:49.1099999999999,78.9474
2013-08-28 0:26:49.869999999999891,78.9474
2013-08-28 0:26:50.630000000000109,76.9231
2013-08-28 0:26:51.410000000000082,77.9221
2013-08-28 0:26:52.180000000000064,76.9231
2013-08-28 0:26:52.960000000000036,75
2013-08-28 0:26:53.759999999999991,74.0741
2013-08-28 0:26:54.569999999999936,74.0741
2013-08-28 0:26:55.380000000000109,73.1707
2013-08-28 0:26:56.200000000000045,72.2892
2013-08-28 0:26:57.029999999999973,73.1707
2013-08-28 0:26:57.849999999999909,74.0741
2013-08-28 0:26:58.660000000000082,72.2892
2013-08-28 0:26:59.490000000000009,73.1707
2013-08-28 0:27:0.30999999999994543,74.0741
2013-08-28 0:27:1.1199999999998909,72.2892
2013-08-28 0:27:1.9500000000000455,73.1707
2013-08-28 0:27:2.7699999999999818,73.1707
2013-08-28 0:27:3.5899999999999181,72.2892
2013-08-28 0:27:4.4200000000000728,73.1707
2013-08-28 0:27:5.2400000000000091,75
2013-08-28 0:27:6.0399999999999636,76.9231
2013-08-28 0:27:6.8199999999999363,76.9231
2013-08-28 0:27:7.5999999999999091,77.9221
2013-08-28 0:27:8.3699999999998909,77.9221
2013-08-28 0:27:9.1400000000001,77.9221
2013-08-28 0:27:9.9100000000000819,76.9231
2013-08-28 0:27:10.690000000000055,75
2013-08-28 0:27:11.490000000000009,72.2892
2013-08-28 0:27:12.319999999999936,75
2013-08-28 0:27:13.119999999999891,74.0741
2013-08-28 0:27:13.930000000000064,69.7674
2013-08-28 0:27:14.789999999999964,69.7674
2013-08-28 0:27:15.650000000000091,68.1818
2013-08-28 0:27:16.529999999999973,69.7674
2013-08-28 0:27:17.3900000000001,69.7674
2013-08-28 0:27:18.25,71.4286
2013-08-28 0:27:19.089999999999918,73.1707
2013-08-28 0:27:19.910000000000082,70.5882
2013-08-28 0:27:20.759999999999991,70.5882
2013-08-28 0:27:21.6099999999999,71.4286
2013-08-28 0:27:22.450000000000045,71.4286
2013-08-28 0:27:23.289999999999964,71.4286
2013-08-28 0:27:24.130000000000109,70.5882
2013-08-28 0:27:24.980000000000018,69.7674
2013-08-28 0:27:25.839999999999918,68.9655
2013-08-28 0:27:26.710000000000036,70.5882
2013-08-28 0:27:27.559999999999945,71.4286
2013-08-28 0:27:28.400000000000091,69.7674
2013-08-28 0:27:29.259999999999991,71.4286
2013-08-28 0:27:30.099999999999909,72.2892
2013-08-28 0:27:30.930000000000064,73.1707
2013-08-28 0:27:31.75,75
2013-08-28 0:27:32.549999999999955,75
2013-08-28 0:27:33.349999999999909,75
2013-08-28 0:27:34.150000000000091,75
2013-08-28 0:27:34.950000000000045,75.9494
2013-08-28 0:27:35.740000000000009,76.9231
2013-08-28 0:27:36.519999999999982,75
2013-08-28 0:27:37.319999999999936,76.9231
2013-08-28 0:27:38.099999999999909,76.9231
2013-08-28 0:27:38.880000000000109,77.9221
2013-08-28 0:27:39.650000000000091,75.9494
2013-08-28 0:27:40.440000000000055,75.9494
2013-08-28 0:27:41.230000000000018,75
2013-08-28 0:27:42.029999999999973,75.9494
2013-08-28 0:27:42.819999999999936,74.0741
2013-08-28 0:27:43.630000000000109,73.1707
2013-08-28 0:27:44.450000000000045,72.2892
2013-08-28 0:27:45.279999999999973,70.5882
2013-08-28 0:27:46.130000000000109,69.7674
2013-08-28 0:27:46.990000000000009,69.7674
2013-08-28 0:27:47.849999999999909,69.7674
2013-08-28 0:27:48.710000000000036,68.1818
2013-08-28 0:27:49.589999999999918,70.5882
2013-08-28 0:27:50.440000000000055,68.9655
2013-08-28 0:27:51.309999999999945,70.5882
2013-08-28 0:27:52.160000000000082,69.7674
2013-08-28 0:27:53.019999999999982,72.2892
2013-08-28 0:27:53.849999999999909,71.4286
2013-08-28 0:27:54.690000000000055,72.2892
2013-08-28 0:27:55.519999999999982,70.5882
2013-08-28 0:27:56.369999999999891,70.5882
2013-08-28 0:27:57.220000000000027,71.4286
2013-08-28 0:27:58.059999999999945,68.9655
2013-08-28 0:27:58.930000000000064,70.5882
2013-08-28 0:27:59.779999999999973,71.4286
2013-08-28 0:28:0.61999999999989086,69.7674
2013-08-28 0:28:1.4800000000000182,71.4286
2013-08-28 0:28:2.3199999999999363,73.1707
2013-08-28 0:28:3.1400000000001,72.2892
2013-08-28 0:28:3.9700000000000273,75
2013-08-28 0:28:4.7699999999999818,75
2013-08-28 0:28:5.5699999999999363,74.0741
2013-08-28 0:28:6.3800000000001091,75
2013-08-28 0:28:7.1800000000000637,75
2013-08-28 0:28:7.9800000000000182,75
2013-08-28 0:28:8.7799999999999727,77.9221
2013-08-28 0:28:9.5499999999999545,77.9221
2013-08-28 0:28:10.319999999999936,78.9474
2013-08-28 0:28:11.079999999999927,78.9474
2013-08-28 0:28:11.839999999999918,81.0811
2013-08-28 0:28:12.579999999999927,81.0811
2013-08-28 0:28:13.319999999999936,81.0811
2013-08-28 0:28:14.059999999999945,81.0811
2013-08-28 0:28:14.799999999999955,80
2013-08-28 0:28:15.549999999999955,81.0811
2013-08-28 0:28:16.289999999999964,80
2013-08-28 0:28:17.039999999999964,77.9221
2013-08-28 0:28:17.809999999999945,80
2013-08-28 0:28:18.559999999999945,77.9221
2013-08-28 0:28:19.329999999999927,76.9231
2013-08-28 0:28:20.1099999999999,75.9494
2013-08-28 0:28:20.900000000000091,75.9494
2013-08-28 0:28:21.690000000000055,75
2013-08-28 0:28:22.490000000000009,74.0741
2013-08-28 0:28:23.299999999999955,75.9494
2013-08-28 0:28:24.089999999999918,75
2013-08-28 0:28:24.8900000000001,74.0741
2013-08-28 0:28:25.700000000000045,75
2013-08-28 0:28:26.5,75.9494
2013-08-28 0:28:27.289999999999964,76.9231
2013-08-28 0:28:28.069999999999936,77.9221
2013-08-28 0:28:28.839999999999918,77.9221
2013-08-28 0:28:29.6099999999999,80
2013-08-28 0:28:30.3599999999999,80
2013-08-28 0:28:31.1099999999999,81.0811
2013-08-28 0:28:31.849999999999909,81.0811
2013-08-28 0:28:32.589999999999918,82.1918
2013-08-28 0:28:33.319999999999936,80
2013-08-28 0:28:34.069999999999936,80
2013-08-28 0:28:34.819999999999936,78.9474
2013-08-28 0:28:35.579999999999927,77.9221
2013-08-28 0:28:36.349999999999909,76.9231
2013-08-28 0:28:37.130000000000109,75.9494
2013-08-28 0:28:37.920000000000073,75
2013-08-28 0:28:38.720000000000027,74.0741
2013-08-28 0:28:39.529999999999973,72.2892
2013-08-28 0:28:40.3599999999999,71.4286
2013-08-28 0:28:41.200000000000045,72.2892
2013-08-28 0:28:42.029999999999973,72.2892
2013-08-28 0:28:42.8599999999999,73.1707
2013-08-28 0:28:43.680000000000064,73.1707
2013-08-28 0:28:44.5,73.1707
2013-08-28 0:28:45.319999999999936,73.1707
2013-08-28 0:28:46.1400000000001,73.1707
2013-08-28 0:28:46.960000000000036,74.0741
2013-08-28 0:28:47.769999999999982,72.2892
2013-08-28 0:28:48.599999999999909,72.2892
2013-08-28 0:28:49.430000000000064,73.1707
2013-08-28 0:28:50.25,72.2892
2013-08-28 0:28:51.079999999999927,72.2892
2013-08-28 0:28:51.910000000000082,75
2013-08-28 0:28:52.710000000000036,75
2013-08-28 0:28:53.509999999999991,75.9494
2013-08-28 0:28:54.299999999999955,75.9494
2013-08-28 0:28:55.089999999999918,78.9474
2013-08-28 0:28:55.849999999999909,77.9221
2013-08-28 0:28:56.619999999999891,75
2013-08-28 0:28:57.420000000000073,73.1707
2013-08-28 0:28:58.240000000000009,75
2013-08-28 0:28:59.039999999999964,75
2013-08-28 0:28:59.839999999999918,72.2892
2013-08-28 0:29:0.67000000000007276,74.0741
2013-08-28 0:29:1.4800000000000182,74.0741
2013-08-28 0:29:2.2899999999999636,73.1707
2013-08-28 0:29:3.1099999999999,72.2892
2013-08-28 0:29:3.9400000000000546,73.1707
2013-08-28 0:29:4.7599999999999909,74.0741
2013-08-28 0:29:5.5699999999999363,74.0741
2013-08-28 0:29:6.3800000000001091,74.0741
2013-08-28 0:29:7.1900000000000546,75.9494
2013-08-28 0:29:7.9800000000000182,75
2013-08-28 0:29:8.7799999999999727,74.0741
2013-08-28 0:29:9.5899999999999181,76.9231
2013-08-28 0:29:10.369999999999891,75.9494
2013-08-28 0:29:11.160000000000082,75
2013-08-28 0:29:11.960000000000036,75
2013-08-28 0:29:12.759999999999991,75
2013-08-28 0:29:13.559999999999945,75.9494
2013-08-28 0:29:14.349999999999909,75
2013-08-28 0:29:15.150000000000091,75
2013-08-28 0:29:15.950000000000045,75
2013-08-28 0:29:16.75,73.1707
2013-08-28 0:29:17.569999999999936,75.9494
2013-08-28 0:29:18.3599999999999,73.1707
2013-08-28 0:29:19.180000000000064,72.2892
2013-08-28 0:29:20.009999999999991,70.5882
2013-08-28 0:29:20.8599999999999,71.4286
2013-08-28 0:29:21.700000000000045,69.7674
2013-08-28 0:29:22.559999999999945,70.5882
2013-08-28 0:29:23.410000000000082,68.9655
2013-08-28 0:29:24.279999999999973,68.1818
2013-08-28 0:29:25.160000000000082,68.9655
2013-08-28 0:29:26.029999999999973,67.4157
2013-08-28 0:29:26.920000000000073,68.1818
2013-08-28 0:29:27.799999999999955,68.1818
2013-08-28 0:29:28.680000000000064,67.4157
2013-08-28 0:29:29.569999999999936,67.4157
2013-08-28 0:29:30.460000000000036,68.9655
2013-08-28 0:29:31.329999999999927,70.5882
2013-08-28 0:29:32.180000000000064,68.9655
2013-08-28 0:29:33.049999999999955,71.4286
2013-08-28 0:29:33.8900000000001,73.1707
2013-08-28 0:29:34.710000000000036,70.5882
2013-08-28 0:29:35.559999999999945,72.2892
2013-08-28 0:29:36.3900000000001,72.2892
2013-08-28 0:29:37.220000000000027,73.1707
2013-08-28 0:29:38.039999999999964,73.1707
2013-08-28 0:29:38.8599999999999,73.1707
2013-08-28 0:29:39.680000000000064,73.1707
2013-08-28 0:29:40.5,75
2013-08-28 0:29:41.299999999999955,73.1707
2013-08-28 0:29:42.119999999999891,73.1707
2013-08-28 0:29:42.940000000000055,74.0741
2013-08-28 0:29:43.75,72.2892
2013-08-28 0:29:44.579999999999927,73.1707
2013-08-28 0:29:45.400000000000091,73.1707
2013-08-28 0:29:46.220000000000027,75
2013-08-28 0:29:47.019999999999982,73.1707
2013-08-28 0:29:47.839999999999918,76.9231
2013-08-28 0:29:48.619999999999891,75.9494
2013-08-28 0:29:49.410000000000082,76.9231
2013-08-28 0:29:50.190000000000055,75
2013-08-28 0:29:50.990000000000009,75.9494
2013-08-28 0:29:54.1400000000001,78.9474
2013-08-28 0:29:54.900000000000091,77.9221
2013-08-28 0:29:55.670000000000073,76.9231
2013-08-28 0:29:56.450000000000045,78.9474
2013-08-28 0:29:57.210000000000036,81.0811
2013-08-28 0:29:57.950000000000045,80
2013-08-28 0:29:58.700000000000045,80
2013-08-28 0:30:1.6600000000000819,81.0811
2013-08-28 0:30:2.4000000000000909,82.1918
2013-08-28 0:30:3.1300000000001091,81.0811
2013-08-28 0:30:6.8499999999999091,83.3333
2013-08-28 0:30:7.5699999999999363,83.3333
2013-08-28 0:30:8.2899999999999636,85.7143
2013-08-28 0:30:12.349999999999909,89.5522
2013-08-28 0:30:13.680000000000064,90.9091
2013-08-28 0:30:14.980000000000018,92.3077
2013-08-28 0:30:16.259999999999991,93.75
2013-08-28 0:30:16.900000000000091,93.75
2013-08-28 0:30:17.539999999999964,92.3077
2013-08-28 0:30:21.059999999999945,83.3333
2013-08-28 0:30:21.779999999999973,81.0811
2013-08-28 0:30:24.730000000000018,81.0811
2013-08-28 0:30:25.470000000000027,77.9221
2013-08-28 0:30:26.240000000000009,75.9494
2013-08-28 0:30:27.029999999999973,75.9494
2013-08-28 0:30:27.819999999999936,76.9231
2013-08-28 0:30:28.599999999999909,74.0741
2013-08-28 0:30:31.809999999999945,74.0741
2013-08-28 0:30:32.619999999999891,76.9231
2013-08-28 0:30:33.400000000000091,76.9231
2013-08-28 0:30:34.180000000000064,77.9221
2013-08-28 0:30:34.950000000000045,80
2013-08-28 0:30:35.700000000000045,80
2013-08-28 0:30:36.450000000000045,78.9474
2013-08-28 0:30:37.210000000000036,80
2013-08-28 0:30:37.960000000000036,81.0811
2013-08-28 0:30:38.700000000000045,78.9474
2013-08-28 0:30:39.460000000000036,78.9474
2013-08-28 0:30:40.220000000000027,78.9474
2013-08-28 0:30:40.980000000000018,76.9231
2013-08-28 0:30:41.759999999999991,76.9231
2013-08-28 0:30:42.539999999999964,75
2013-08-28 0:30:43.339999999999918,76.9231
2013-08-28 0:30:44.119999999999891,75.9494
2013-08-28 0:30:44.910000000000082,75
2013-08-28 0:30:45.710000000000036,73.1707
2013-08-28 0:30:46.529999999999973,75.9494
2013-08-28 0:30:47.319999999999936,75
2013-08-28 0:30:48.119999999999891,72.2892
2013-08-28 0:30:48.950000000000045,72.2892
2013-08-28 0:30:49.779999999999973,73.1707
2013-08-28 0:30:50.599999999999909,74.0741
2013-08-28 0:30:51.410000000000082,74.0741
2013-08-28 0:30:52.220000000000027,73.1707
2013-08-28 0:30:53.039999999999964,73.1707
2013-08-28 0:30:53.8599999999999,74.0741
2013-08-28 0:30:54.670000000000073,75
2013-08-28 0:30:55.470000000000027,74.0741
2013-08-28 0:30:56.279999999999973,74.0741
2013-08-28 0:30:57.089999999999918,74.0741
2013-08-28 0:30:57.900000000000091,74.0741
2013-08-28 0:31:1.1099999999999,74.0741
2013-08-28 0:31:1.9200000000000728,75.9494
2013-08-28 0:31:5.0499999999999545,77.9221
2013-08-28 0:31:5.8199999999999363,77.9221
2013-08-28 0:31:6.5899999999999181,78.9474
2013-08-28 0:31:7.3499999999999091,77.9221
2013-08-28 0:31:8.1199999999998909,77.9221
2013-08-28 0:31:8.8900000000001,81.0811
2013-08-28 0:31:9.6300000000001091,78.9474
2013-08-28 0:31:10.3900000000001,80
2013-08-28 0:31:11.1400000000001,81.0811
2013-08-28 0:31:11.880000000000109,80
2013-08-28 0:31:12.630000000000109,80
2013-08-28 0:31:13.380000000000109,81.0811
2013-08-28 0:31:14.119999999999891,80
2013-08-28 0:31:14.869999999999891,78.9474
2013-08-28 0:31:15.630000000000109,76.9231
2013-08-28 0:31:18.740000000000009,76.9231
2013-08-28 0:31:19.519999999999982,75.9494
2013-08-28 0:31:20.309999999999945,75
2013-08-28 0:31:21.1099999999999,74.0741
2013-08-28 0:31:21.920000000000073,74.0741
2013-08-28 0:31:22.730000000000018,74.0741
2013-08-28 0:31:23.539999999999964,73.1707
2013-08-28 0:31:24.3599999999999,73.1707
2013-08-28 0:31:25.180000000000064,74.0741
2013-08-28 0:31:25.990000000000009,74.0741
2013-08-28 0:31:26.799999999999955,74.0741
2013-08-28 0:31:27.6099999999999,73.1707
2013-08-28 0:31:28.430000000000064,75
2013-08-28 0:31:29.230000000000018,75
2013-08-28 0:31:30.029999999999973,73.1707
2013-08-28 0:31:30.849999999999909,75
2013-08-28 0:31:31.650000000000091,74.0741
2013-08-28 0:31:32.460000000000036,75
2013-08-28 0:31:33.259999999999991,75.9494
2013-08-28 0:31:34.049999999999955,76.9231
2013-08-28 0:31:34.829999999999927,78.9474
2013-08-28 0:31:35.589999999999918,78.9474
2013-08-28 0:31:36.349999999999909,78.9474
2013-08-28 0:31:37.1099999999999,81.0811
2013-08-28 0:31:37.849999999999909,81.0811
2013-08-28 0:31:38.589999999999918,80
2013-08-28 0:31:39.339999999999918,80
2013-08-28 0:31:40.089999999999918,78.9474
2013-08-28 0:31:40.849999999999909,75.9494
2013-08-28 0:31:41.6400000000001,75.9494
2013-08-28 0:31:44.910000000000082,72.2892
2013-08-28 0:31:45.740000000000009,70.5882
2013-08-28 0:31:46.589999999999918,69.7674
2013-08-28 0:31:47.450000000000045,69.7674
2013-08-28 0:31:48.309999999999945,66.6667
2013-08-28 0:31:49.210000000000036,62.5
2013-08-28 0:31:50.170000000000073,64.5161
2013-08-28 0:31:51.099999999999909,65.9341
2013-08-28 0:31:52.009999999999991,65.2174
2013-08-28 0:31:52.930000000000064,63.1579
2013-08-28 0:31:53.880000000000109,65.9341
2013-08-28 0:31:54.789999999999964,63.1579
2013-08-28 0:31:55.740000000000009,63.8298
2013-08-28 0:31:56.680000000000064,63.1579
2013-08-28 0:31:57.630000000000109,65.9341
2013-08-28 0:31:58.539999999999964,67.4157
2013-08-28 0:31:59.430000000000064,71.4286
2013-08-28 0:32:0.26999999999998181,72.2892
2013-08-28 0:32:1.0999999999999091,75
2013-08-28 0:32:1.9000000000000909,77.9221
2013-08-28 0:32:2.6700000000000728,76.9231
2013-08-28 0:32:3.4500000000000455,76.9231
2013-08-28 0:32:4.2300000000000182,78.9474
2013-08-28 0:32:4.9900000000000091,78.9474
2013-08-28 0:32:5.75,76.9231
2013-08-28 0:32:6.5299999999999727,76.9231
2013-08-28 0:32:7.3099999999999454,76.9231
2013-08-28 0:32:8.0899999999999181,76.9231
2013-08-28 0:32:8.8699999999998909,75.9494
2013-08-28 0:32:9.6600000000000819,75
2013-08-28 0:32:10.460000000000036,74.0741
2013-08-28 0:32:11.269999999999982,74.0741
2013-08-28 0:32:12.079999999999927,73.1707
2013-08-28 0:32:12.900000000000091,73.1707
2013-08-28 0:32:13.720000000000027,74.0741
2013-08-28 0:32:14.529999999999973,73.1707
2013-08-28 0:32:15.349999999999909,73.1707
2013-08-28 0:32:16.170000000000073,72.2892
2013-08-28 0:32:17.0,74.0741
2013-08-28 0:32:17.809999999999945,74.0741
2013-08-28 0:32:18.619999999999891,73.1707
2013-08-28 0:32:19.440000000000055,74.0741
2013-08-28 0:32:20.25,75
2013-08-28 0:32:21.049999999999955,75.9494
2013-08-28 0:32:21.839999999999918,75
2013-08-28 0:32:22.6400000000001,74.0741
2013-08-28 0:32:23.450000000000045,73.1707
2013-08-28 0:32:24.269999999999982,75
2013-08-28 0:32:25.069999999999936,74.0741
2013-08-28 0:32:25.880000000000109,73.1707
2013-08-28 0:32:26.700000000000045,73.1707
2013-08-28 0:32:27.519999999999982,74.0741
2013-08-28 0:32:28.329999999999927,75
2013-08-28 0:32:29.130000000000109,74.0741
2013-08-28 0:32:29.940000000000055,75
2013-08-28 0:32:30.740000000000009,75
2013-08-28 0:32:31.539999999999964,75.9494
2013-08-28 0:32:32.329999999999927,75
2013-08-28 0:32:33.130000000000109,75
2013-08-28 0:32:36.299999999999955,76.9231
2013-08-28 0:32:37.079999999999927,76.9231
2013-08-28 0:32:37.8599999999999,75.9494
2013-08-28 0:32:38.650000000000091,75
2013-08-28 0:32:39.450000000000045,74.0741
2013-08-28 0:32:40.259999999999991,74.0741
2013-08-28 0:32:41.069999999999936,74.0741
2013-08-28 0:32:41.880000000000109,75
2013-08-28 0:32:42.680000000000064,75.9494
2013-08-28 0:32:43.470000000000027,73.1707
2013-08-28 0:32:44.289999999999964,72.2892
2013-08-28 0:32:45.119999999999891,70.5882
2013-08-28 0:32:45.970000000000027,70.5882
2013-08-28 0:32:46.819999999999936,70.5882
2013-08-28 0:32:47.670000000000073,71.4286
2013-08-28 0:32:48.509999999999991,72.2892
2013-08-28 0:32:49.339999999999918,72.2892
2013-08-28 0:32:50.170000000000073,73.1707
2013-08-28 0:32:50.990000000000009,75
2013-08-28 0:32:51.789999999999964,73.1707
2013-08-28 0:32:52.6099999999999,76.9231
2013-08-28 0:32:53.3900000000001,76.9231
2013-08-28 0:32:54.170000000000073,77.9221
2013-08-28 0:32:54.940000000000055,82.1918
2013-08-28 0:32:55.670000000000073,81.0811
2013-08-28 0:32:56.410000000000082,81.0811
2013-08-28 0:32:57.150000000000091,82.1918
2013-08-28 0:32:57.880000000000109,81.0811
2013-08-28 0:32:58.619999999999891,82.1918
2013-08-28 0:32:59.349999999999909,83.3333
2013-08-28 0:33:0.069999999999936335,83.3333
2013-08-28 0:33:0.78999999999996362,82.1918
2013-08-28 0:33:1.5199999999999818,80
2013-08-28 0:33:2.2699999999999818,81.0811
2013-08-28 0:33:3.0099999999999909,77.9221
2013-08-28 0:33:3.7799999999999727,77.9221
2013-08-28 0:33:4.5499999999999545,77.9221
2013-08-28 0:33:5.3199999999999363,78.9474
2013-08-28 0:33:12.059999999999945,83.3333
2013-08-28 0:33:25.670000000000073,86.9565
2013-08-28 0:33:48.25,75.9494
2013-08-28 0:33:52.849999999999909,75
2013-08-28 0:33:53.650000000000091,76.9231
2013-08-28 0:34:15.630000000000109,76.9231
2013-08-28 0:34:16.409999999999854,78.9474
2013-08-28 0:34:17.170000000000073,80
2013-08-28 0:34:17.920000000000073,74.0741
2013-08-28 0:34:18.730000000000018,74.0741
2013-08-28 0:34:19.539999999999964,76.9231
2013-08-28 0:34:20.320000000000164,69.7674
2013-08-28 0:34:21.179999999999836,72.2892
2013-08-28 0:34:24.5300000000002,73.1707
2013-08-28 0:34:25.349999999999909,74.0741
2013-08-28 0:34:28.579999999999927,74.0741
2013-08-28 0:34:54.940000000000055,81.0811
2013-08-28 0:34:55.679999999999836,75.9494
2013-08-28 0:34:56.4699999999998,78.9474
2013-08-28 0:34:57.230000000000018,77.9221
2013-08-28 0:34:58.0,74.0741
2013-08-28 0:34:58.809999999999945,73.1707
2013-08-28 0:34:59.630000000000109,73.1707
2013-08-28 0:35:0.4499999999998181,75
2013-08-28 0:35:1.25,74.0741
2013-08-28 0:35:2.0599999999999454,75
2013-08-28 0:35:2.8600000000001273,74.0741
2013-08-28 0:35:3.6700000000000728,80
2013-08-28 0:35:4.4200000000000728,76.9231
2013-08-28 0:35:41.0300000000002,78.9474
2013-08-28 0:35:42.510000000000218,77.9221
2013-08-28 0:35:43.2800000000002,74.0741
2013-08-28 0:35:44.090000000000146,75.9494
2013-08-28 0:35:47.269999999999982,75
2013-08-28 0:36:20.769999999999982,81.0811
2013-08-28 0:36:21.510000000000218,81.0811
2013-08-28 0:36:22.25,80
2013-08-28 0:36:23.0,76.9231
2013-08-28 0:36:23.7800000000002,75.9494
2013-08-28 0:36:27.0,75
2013-08-28 0:36:58.570000000000164,80
2013-08-28 0:37:0.030000000000200089,83.3333
2013-08-28 0:37:0.75,81.0811
2013-08-28 0:37:1.4899999999997817,77.9221
2013-08-28 0:37:2.2600000000002183,83.3333
2013-08-28 0:37:2.9800000000000182,76.9231
2013-08-28 0:37:3.7600000000002183,75
2013-08-28 0:37:4.5599999999999454,75.9494
2013-08-28 0:37:5.3499999999999091,77.9221
2013-08-28 0:37:6.1199999999998909,71.4286
2013-08-28 0:37:6.9600000000000364,71.4286
2013-08-28 0:37:38.769999999999982,80
2013-08-28 0:37:40.210000000000036,83.3333
2013-08-28 0:37:40.929999999999836,77.9221
2013-08-28 0:37:41.699999999999818,83.3333
2013-08-28 0:37:42.420000000000073,80
2013-08-28 0:37:43.170000000000073,75
2013-08-28 0:37:43.9699999999998,76.9231
2013-08-28 0:38:18.170000000000073,78.9474
2013-08-28 0:38:18.929999999999836,80
2013-08-28 0:38:19.679999999999836,77.9221
2013-08-28 0:38:20.449999999999818,77.9221
2013-08-28 0:38:21.2199999999998,76.9231
2013-08-28 0:38:22.0,76.9231
2013-08-28 0:38:22.7800000000002,71.4286
2013-08-28 0:38:23.619999999999891,73.1707
2013-08-28 0:38:59.699999999999818,80
2013-08-28 0:39:0.4499999999998181,81.0811
2013-08-28 0:39:1.1900000000000546,77.9221
2013-08-28 0:39:1.9600000000000364,76.9231
2013-08-28 0:39:5.2100000000000364,71.4286
2013-08-28 0:39:6.0500000000001819,68.9655
2013-08-28 0:39:10.300000000000182,72.2892
2013-08-28 0:39:11.130000000000109,71.4286
2013-08-28 0:39:11.9699999999998,74.0741
2013-08-28 0:39:16.019999999999982,71.4286
2013-08-28 0:39:40.170000000000073,82.1918
2013-08-28 0:39:40.900000000000091,80
2013-08-28 0:39:41.650000000000091,81.0811
2013-08-28 0:39:42.389999999999873,80
2013-08-28 0:39:43.139999999999873,77.9221
2013-08-28 0:39:43.909999999999854,78.9474
2013-08-28 0:39:44.670000000000073,77.9221
2013-08-28 0:39:45.440000000000055,75
2013-08-28 0:39:46.239999999999782,70.5882
2013-08-28 0:39:50.550000000000182,68.1818
2013-08-28 0:39:58.590000000000146,69.7674
2013-08-28 0:40:25.860000000000127,77.9221
2013-08-28 0:40:26.630000000000109,77.9221
2013-08-28 0:40:27.400000000000091,75
2013-08-28 0:40:28.199999999999818,75
2013-08-28 0:40:29.0,73.1707
2013-08-28 0:40:29.820000000000164,68.9655
2013-08-28 0:40:30.690000000000055,67.4157
2013-08-28 0:40:31.579999999999927,67.4157
2013-08-28 0:40:32.4699999999998,65.2174
2013-08-28 0:40:33.389999999999873,66.6667
2013-08-28 0:40:34.289999999999964,65.2174
2013-08-28 0:40:35.210000000000036,65.2174
2013-08-28 0:40:36.130000000000109,67.4157
2013-08-28 0:40:37.019999999999982,70.5882
2013-08-28 0:40:37.869999999999891,70.5882
2013-08-28 0:40:38.7199999999998,70.5882
2013-08-28 0:40:48.289999999999964,71.4286
2013-08-28 0:40:49.940000000000055,71.4286
2013-08-28 0:40:50.7800000000002,71.4286
2013-08-28 0:40:51.619999999999891,75
2013-08-28 0:40:52.420000000000073,74.0741
2013-08-28 0:40:53.230000000000018,75.9494
2013-08-28 0:40:54.019999999999982,77.9221
2013-08-28 0:40:54.789999999999964,77.9221
2013-08-28 0:40:55.559999999999945,76.9231
2013-08-28 0:40:57.070000000000164,77.9221
2013-08-28 0:40:57.840000000000146,75.9494
2013-08-28 0:40:58.630000000000109,81.0811
2013-08-28 0:40:59.369999999999891,75.9494
2013-08-28 0:41:0.15999999999985448,75.9494
2013-08-28 0:41:0.9499999999998181,75.9494
2013-08-28 0:41:1.7399999999997817,74.0741
2013-08-28 0:41:2.5500000000001819,70.5882
2013-08-28 0:41:8.6300000000001091,66.6667
2013-08-28 0:41:9.5300000000002001,66.6667
2013-08-28 0:41:10.429999999999836,65.2174
2013-08-28 0:41:40.670000000000073,81.0811
2013-08-28 0:41:41.409999999999854,80
2013-08-28 0:41:42.159999999999854,77.9221
2013-08-28 0:41:42.929999999999836,77.9221
2013-08-28 0:41:43.699999999999818,76.9231
2013-08-28 0:41:44.480000000000018,75
2013-08-28 0:41:45.2800000000002,73.1707
2013-08-28 0:41:46.099999999999909,70.5882
2013-08-28 0:41:46.949999999999818,72.2892
2013-08-28 0:41:47.7800000000002,67.4157
2013-08-28 0:41:48.670000000000073,68.1818
2013-08-28 0:41:49.550000000000182,68.9655
2013-08-28 0:41:50.420000000000073,65.2174
2013-08-28 0:41:51.340000000000146,65.9341
2013-08-28 0:41:52.25,68.1818
2013-08-28 0:41:53.130000000000109,65.9341
2013-08-28 0:41:54.039999999999964,64.5161
2013-08-28 0:41:54.9699999999998,65.9341
2013-08-28 0:41:55.880000000000109,66.6667
2013-08-28 0:42:26.25,80
2013-08-28 0:42:27.730000000000018,80
2013-08-28 0:42:28.480000000000018,76.9231
2013-08-28 0:42:29.260000000000218,77.9221
2013-08-28 0:42:32.4699999999998,65.9341
2013-08-28 0:42:36.099999999999909,64.5161
2013-08-28 0:42:37.0300000000002,68.1818
2013-08-28 0:42:37.909999999999854,62.5
2013-08-28 0:42:38.869999999999891,67.4157
2013-08-28 0:42:46.670000000000073,71.4286
2013-08-28 0:42:47.510000000000218,71.4286
2013-08-28 0:42:48.349999999999909,71.4286
2013-08-28 0:42:49.190000000000055,71.4286
2013-08-28 0:42:50.0300000000002,71.4286
2013-08-28 0:43:4.6599999999998545,68.9655
2013-08-28 0:43:5.5300000000002001,74.0741
2013-08-28 0:43:6.3400000000001455,75
2013-08-28 0:43:7.1399999999998727,75.9494
2013-08-28 0:43:7.9299999999998363,76.9231
2013-08-28 0:43:10.940000000000055,80
2013-08-28 0:43:12.389999999999873,83.3333
2013-08-28 0:43:13.110000000000127,82.1918
2013-08-28 0:43:13.840000000000146,82.1918
2013-08-28 0:43:18.480000000000018,68.9655
2013-08-28 0:43:19.349999999999909,69.7674
2013-08-28 0:43:20.210000000000036,65.2174
2013-08-28 0:43:21.130000000000109,63.1579
2013-08-28 0:43:22.079999999999927,63.8298
2013-08-28 0:43:23.019999999999982,68.1818
2013-08-28 0:43:23.900000000000091,66.6667
2013-08-28 0:43:24.800000000000182,68.9655
2013-08-28 0:43:30.909999999999854,70.5882
2013-08-28 0:43:31.760000000000218,71.4286
2013-08-28 0:43:33.400000000000091,75
2013-08-28 0:43:34.199999999999818,72.2892
2013-08-28 0:43:35.0300000000002,75.9494
2013-08-28 0:43:35.820000000000164,75
2013-08-28 0:43:36.619999999999891,71.4286
2013-08-28 0:43:37.460000000000036,70.5882
2013-08-28 0:44:5.2899999999999636,73.1707
2013-08-28 0:44:6.1100000000001273,70.5882
2013-08-28 0:44:6.9600000000000364,68.9655
2013-08-28 0:44:10.579999999999927,63.8298
2013-08-28 0:44:11.519999999999982,67.4157
2013-08-28 0:44:12.409999999999854,63.8298
2013-08-28 0:44:26.010000000000218,68.1818
2013-08-28 0:44:47.610000000000127,82.1918
2013-08-28 0:44:55.75,66.6667
2013-08-28 0:45:1.0300000000002001,67.4157
2013-08-28 0:45:6.2800000000002001,68.1818
2013-08-28 0:45:11.309999999999945,68.1818
2013-08-28 0:45:24.110000000000127,68.1818
2013-08-28 0:45:31.119999999999891,80
2013-08-28 0:45:31.869999999999891,81.0811
2013-08-28 0:45:32.610000000000127,82.1918
2013-08-28 0:45:33.340000000000146,81.0811
2013-08-28 0:45:34.079999999999927,83.3333
2013-08-28 0:45:34.800000000000182,83.3333
2013-08-28 0:45:35.519999999999982,80
2013-08-28 0:45:38.489999999999782,72.2892
2013-08-28 0:45:43.519999999999982,72.2892
2013-08-28 0:45:44.349999999999909,67.4157
2013-08-28 0:46:16.820000000000164,77.9221
2013-08-28 0:46:23.400000000000091,66.6667
2013-08-28 0:46:24.300000000000182,63.8298
2013-08-28 0:46:25.239999999999782,61.8557
2013-08-28 0:46:26.210000000000036,65.9341
2013-08-28 0:46:27.119999999999891,65.9341
2013-08-28 0:46:28.0300000000002,68.9655
2013-08-28 0:47:0.23000000000001819,82.1918
2013-08-28 0:47:0.96000000000003638,80
2013-08-28 0:47:1.7100000000000364,77.9221
2013-08-28 0:47:2.4800000000000182,77.9221
2013-08-28 0:47:3.25,71.4286
2013-08-28 0:47:4.0900000000001455,71.4286
2013-08-28 0:47:4.9299999999998363,72.2892
2013-08-28 0:47:10.9699999999998,66.6667
2013-08-28 0:47:20.659999999999854,69.7674
2013-08-28 0:47:43.400000000000091,83.3333
2013-08-28 0:47:44.119999999999891,78.9474
2013-08-28 0:47:45.579999999999927,76.9231
2013-08-28 0:47:46.360000000000127,80
2013-08-28 0:48:3.5799999999999272,92.3077
2013-08-28 0:48:4.2300000000000182,92.3077
2013-08-28 0:48:4.8800000000001091,90.9091
2013-08-28 0:48:5.5399999999999636,90.9091
2013-08-28 0:48:6.1999999999998181,86.9565
2013-08-28 0:48:6.8899999999998727,82.1918
2013-08-28 0:48:7.6199999999998909,80
2013-08-28 0:48:8.3699999999998909,76.9231
2013-08-28 0:48:9.1500000000000909,75.9494
2013-08-28 0:48:9.9400000000000546,76.9231
2013-08-28 0:48:10.7199999999998,75.9494
2013-08-28 0:48:11.510000000000218,72.2892
2013-08-28 0:48:12.340000000000146,69.7674
2013-08-28 0:48:13.199999999999818,73.1707
2013-08-28 0:48:14.019999999999982,75
2013-08-28 0:48:14.820000000000164,77.9221
2013-08-28 0:48:15.590000000000146,80
2013-08-28 0:48:19.489999999999782,70.5882
2013-08-28 0:48:20.340000000000146,69.7674
2013-08-28 0:48:21.199999999999818,73.1707
2013-08-28 0:48:22.019999999999982,74.0741
2013-08-28 0:48:22.829999999999927,75
2013-08-28 0:48:23.630000000000109,75.9494
2013-08-28 0:48:24.420000000000073,77.9221
2013-08-28 0:48:25.190000000000055,81.0811
2013-08-28 0:48:25.929999999999836,83.3333
2013-08-28 0:48:26.650000000000091,83.3333
2013-08-28 0:48:27.369999999999891,83.3333
2013-08-28 0:48:28.090000000000146,82.1918
2013-08-28 0:48:28.820000000000164,80
2013-08-28 0:48:29.570000000000164,76.9231
2013-08-28 0:48:30.349999999999909,74.0741
2013-08-28 0:48:36.239999999999782,68.9655
2013-08-28 0:48:37.110000000000127,67.4157
2013-08-28 0:48:38.0,68.1818
2013-08-28 0:48:38.880000000000109,66.6667
2013-08-28 0:48:39.7800000000002,68.9655
2013-08-28 0:48:40.650000000000091,67.4157
2013-08-28 0:48:41.539999999999964,73.1707
2013-08-28 0:48:42.360000000000127,68.9655
2013-08-28 0:48:43.230000000000018,70.5882
2013-08-28 0:48:46.539999999999964,73.1707
2013-08-28 0:48:49.75,74.0741
2013-08-28 0:48:55.25,78.9474
2013-08-28 0:48:56.010000000000218,80
2013-08-28 0:48:56.760000000000218,81.0811
2013-08-28 0:48:57.5,81.0811
2013-08-28 0:48:58.239999999999782,81.0811
2013-08-28 0:48:58.980000000000018,82.1918
2013-08-28 0:48:59.710000000000036,82.1918
2013-08-28 0:49:0.44000000000005457,78.9474
2013-08-28 0:49:3.3400000000001455,80
2013-08-28 0:49:4.7800000000002001,83.3333
2013-08-28 0:49:5.5,81.0811
2013-08-28 0:49:6.2399999999997817,83.3333
2013-08-28 0:49:9.2600000000002183,73.1707
2013-08-28 0:49:46.199999999999818,80
2013-08-28 0:49:47.650000000000091,78.9474
2013-08-28 0:49:50.710000000000036,75
2013-08-28 0:50:28.070000000000164,82.1918
2013-08-28 0:50:28.800000000000182,81.0811
2013-08-28 0:50:29.539999999999964,81.0811
2013-08-28 0:50:30.2800000000002,78.9474
2013-08-28 0:50:31.039999999999964,76.9231
2013-08-28 0:50:31.820000000000164,75
2013-08-28 0:50:32.619999999999891,69.7674
2013-08-28 0:51:16.380000000000109,83.3333
2013-08-28 0:51:17.099999999999909,81.0811
2013-08-28 0:51:17.840000000000146,78.9474
2013-08-28 0:51:18.599999999999909,82.1918
2013-08-28 0:51:19.329999999999927,76.9231
2013-08-28 0:51:20.110000000000127,75.9494
2013-08-28 0:51:20.900000000000091,77.9221
2013-08-28 0:51:21.670000000000073,76.9231
2013-08-28 0:51:22.449999999999818,72.2892
2013-08-28 0:51:23.2800000000002,75
2013-08-28 0:52:46.309999999999945,80
2013-08-28 0:53:32.5,75
2013-08-28 0:53:34.079999999999927,76.9231
2013-08-28 0:53:34.860000000000127,75.9494
2013-08-28 0:53:35.650000000000091,74.0741
2013-08-28 0:53:36.460000000000036,77.9221
2013-08-28 0:53:37.230000000000018,75
2013-08-28 0:53:38.0300000000002,71.4286
2013-08-28 0:53:38.869999999999891,67.4157
2013-08-28 0:53:52.809999999999945,68.1818
2013-08-28 0:54:22.5300000000002,82.1918
2013-08-28 0:54:23.260000000000218,80
2013-08-28 0:54:24.010000000000218,83.3333
2013-08-28 0:54:24.730000000000018,77.9221
2013-08-28 0:54:25.5,75
2013-08-28 0:54:26.300000000000182,68.1818
2013-08-28 0:54:32.489999999999782,65.9341
2013-08-28 0:54:33.400000000000091,66.6667
2013-08-28 0:54:34.300000000000182,68.1818
2013-08-28 0:54:35.179999999999836,69.7674
2013-08-28 0:54:36.039999999999964,68.1818
2013-08-28 0:55:6.1599999999998545,75.9494
2013-08-28 0:55:8.4400000000000546,75
2013-08-28 0:55:9.2399999999997817,80
2013-08-28 0:55:17.0,63.8298
2013-08-28 0:55:17.940000000000055,65.9341
2013-08-28 0:55:18.849999999999909,65.2174
2013-08-28 0:55:19.769999999999982,63.8298
2013-08-28 0:55:20.710000000000036,63.8298
2013-08-28 0:55:21.650000000000091,67.4157
2013-08-28 0:55:52.670000000000073,75.9494
2013-08-28 0:55:54.199999999999818,76.9231
2013-08-28 0:55:54.980000000000018,73.1707
2013-08-28 0:55:55.800000000000182,74.0741
2013-08-28 0:55:59.090000000000146,73.1707
2013-08-28 0:56:54.070000000000164,84.507
2013-08-28 0:56:54.7800000000002,76.9231
2013-08-28 0:56:55.559999999999945,75
2013-08-28 0:56:56.360000000000127,73.1707
2013-08-28 0:56:57.179999999999836,72.2892
2013-08-28 0:56:58.010000000000218,69.7674
2013-08-28 0:57:1.3400000000001455,70.5882
2013-08-28 0:57:2.1900000000000546,72.2892
2013-08-28 0:57:3.0199999999999818,70.5882
2013-08-28 0:57:3.8699999999998909,71.4286
2013-08-28 0:57:4.7100000000000364,75.9494
2013-08-28 0:57:5.5,74.0741
2013-08-28 0:57:6.3099999999999454,74.0741
2013-08-28 0:57:7.1199999999998909,78.9474
2013-08-28 0:57:7.8800000000001091,73.1707
2013-08-28 0:57:8.6999999999998181,76.9231
2013-08-28 0:57:9.4800000000000182,75
2013-08-28 0:57:12.679999999999836,78.9474
2013-08-28 0:57:13.440000000000055,78.9474
2013-08-28 0:57:14.199999999999818,80
2013-08-28 0:57:14.949999999999818,82.1918
2013-08-28 0:57:15.679999999999836,84.507
2013-08-28 0:57:16.389999999999873,85.7143
2013-08-28 0:57:17.090000000000146,85.7143
2013-08-28 0:57:17.789999999999964,82.1918
2013-08-28 0:57:18.519999999999982,88.2353
2013-08-28 0:57:19.199999999999818,84.507
2013-08-28 0:57:19.909999999999854,84.507
2013-08-28 0:57:20.619999999999891,80
2013-08-28 0:57:21.369999999999891,83.3333
2013-08-28 0:57:22.090000000000146,82.1918
2013-08-28 0:57:22.820000000000164,83.3333
2013-08-28 0:57:23.539999999999964,78.9474
2013-08-28 0:57:24.300000000000182,82.1918
2013-08-28 0:57:25.0300000000002,77.9221
2013-08-28 0:57:25.800000000000182,78.9474
2013-08-28 0:57:26.559999999999945,77.9221
2013-08-28 0:57:29.670000000000073,74.0741
2013-08-28 0:57:30.480000000000018,72.2892
2013-08-28 0:57:31.309999999999945,69.7674
2013-08-28 0:57:32.170000000000073,68.1818
2013-08-28 0:57:33.050000000000182,67.4157
2013-08-28 0:57:36.550000000000182,69.7674
2013-08-28 0:57:37.409999999999854,70.5882
2013-08-28 0:57:40.639999999999873,77.9221
2013-08-28 0:57:41.409999999999854,75.9494
2013-08-28 0:57:42.199999999999818,77.9221
2013-08-28 0:57:42.9699999999998,77.9221
2013-08-28 0:57:46.099999999999909,77.9221
2013-08-28 0:57:46.869999999999891,80
2013-08-28 0:57:47.619999999999891,77.9221
2013-08-28 0:57:48.389999999999873,81.0811
2013-08-28 0:57:49.840000000000146,84.507
2013-08-28 0:57:51.940000000000055,86.9565
2013-08-28 0:57:52.630000000000109,84.507
2013-08-28 0:57:53.340000000000146,88.2353
2013-08-28 0:57:54.019999999999982,89.5522
2013-08-28 0:57:55.340000000000146,85.7143
2013-08-28 0:57:56.039999999999964,90.9091
2013-08-28 0:57:56.699999999999818,89.5522
2013-08-28 0:57:57.369999999999891,93.75
2013-08-28 0:57:58.010000000000218,85.7143
2013-08-28 0:57:58.710000000000036,90.9091
2013-08-28 0:57:59.369999999999891,89.5522
2013-08-28 0:58:0.03999999999996362,89.5522
2013-08-28 0:58:0.71000000000003638,89.5522
2013-08-28 0:58:1.3800000000001091,89.5522
2013-08-28 0:58:2.0500000000001819,89.5522
2013-08-28 0:58:2.7199999999997999,90.9091
2013-08-28 0:58:5.3899999999998727,84.507
2013-08-28 0:58:6.0999999999999091,82.1918
2013-08-28 0:58:6.8299999999999272,78.9474
2013-08-28 0:58:7.5900000000001455,75
2013-08-28 0:58:8.3899999999998727,73.1707
2013-08-28 0:58:9.2100000000000364,75
2013-08-28 0:58:10.010000000000218,72.2892
2013-08-28 0:58:10.840000000000146,74.0741
2013-08-28 0:58:11.650000000000091,75.9494
2013-08-28 0:58:12.440000000000055,75
2013-08-28 0:58:13.239999999999782,78.9474
2013-08-28 0:58:14.0,80
2013-08-28 0:58:14.75,80
2013-08-28 0:58:15.5,80
2013-08-28 0:58:16.25,81.0811
2013-08-28 0:58:16.989999999999782,81.0811
2013-08-28 0:58:17.730000000000018,78.9474
2013-08-28 0:58:18.489999999999782,77.9221
2013-08-28 0:58:19.260000000000218,77.9221
2013-08-28 0:58:20.0300000000002,76.9231
2013-08-28 0:58:20.809999999999945,76.9231
2013-08-28 0:58:21.590000000000146,78.9474
2013-08-28 0:58:22.349999999999909,80
2013-08-28 0:58:25.389999999999873,78.9474
2013-08-28 0:58:28.369999999999891,81.0811
2013-08-28 0:58:29.110000000000127,84.507
2013-08-28 0:58:29.820000000000164,83.3333
2013-08-28 0:58:30.539999999999964,81.0811
2013-08-28 0:58:31.2800000000002,86.9565
2013-08-28 0:58:34.130000000000109,80
2013-08-28 0:58:39.619999999999891,73.1707
2013-08-28 0:58:40.440000000000055,69.7674
2013-08-28 0:59:2.6399999999998727,83.3333
2013-08-28 0:59:3.3600000000001273,80
2013-08-28 0:59:4.1100000000001273,84.507
2013-08-28 0:59:4.8200000000001637,77.9221
2013-08-28 0:59:5.5900000000001455,74.0741
2013-08-28 0:59:6.4000000000000909,76.9231
2013-08-28 0:59:7.1799999999998363,74.0741
2013-08-28 0:59:7.9899999999997817,69.7674
2013-08-28 0:59:32.710000000000036,76.9231
2013-08-28 0:59:34.230000000000018,78.9474
2013-08-28 0:59:34.989999999999782,78.9474
2013-08-28 0:59:35.75,77.9221
2013-08-28 0:59:36.519999999999982,82.1918
2013-08-28 0:59:37.25,77.9221
2013-08-28 0:59:38.019999999999982,80
2013-08-28 0:59:38.769999999999982,82.1918
2013-08-28 0:59:39.5,76.9231
2013-08-28 0:59:40.2800000000002,81.0811
2013-08-28 0:59:41.019999999999982,81.0811
2013-08-28 0:59:41.760000000000218,76.9231
2013-08-28 0:59:47.170000000000073,76.9231
2013-08-28 1:0:9.3600000000001273,80
2013-08-28 1:0:10.110000000000127,78.9474
2013-08-28 1:0:13.099999999999909,80
2013-08-28 1:0:16.110000000000127,74.0741
2013-08-28 1:0:16.920000000000073,72.2892
2013-08-28 1:0:22.869999999999891,69.7674
2013-08-28 1:0:23.730000000000018,72.2892
2013-08-28 1:0:47.050000000000182,80
2013-08-28 1:0:47.800000000000182,77.9221
2013-08-28 1:0:48.570000000000164,78.9474
2013-08-28 1:0:49.329999999999927,78.9474
2013-08-28 1:0:50.090000000000146,76.9231
2013-08-28 1:0:50.869999999999891,76.9231
2013-08-28 1:0:51.650000000000091,76.9231
2013-08-28 1:0:52.429999999999836,74.0741
2013-08-28 1:0:53.239999999999782,76.9231
2013-08-28 1:0:54.019999999999982,78.9474
2013-08-28 1:0:54.7800000000002,74.0741
2013-08-28 1:0:55.590000000000146,76.9231
2013-08-28 1:0:58.670000000000073,77.9221
2013-08-28 1:1:8.9499999999998181,73.1707
2013-08-28 1:1:37.980000000000018,73.1707
2013-08-28 1:1:38.800000000000182,74.0741
2013-08-28 1:2:20.7199999999998,83.3333
2013-08-28 1:2:21.440000000000055,82.1918
2013-08-28 1:2:24.480000000000018,74.0741
2013-08-28 1:2:42.829999999999927,83.3333
2013-08-28 1:2:45.809999999999945,71.4286
2013-08-28 1:2:46.650000000000091,69.7674
2013-08-28 1:2:47.510000000000218,65.2174
2013-08-28 1:2:48.429999999999836,67.4157
2013-08-28 1:2:49.320000000000164,67.4157
2013-08-28 1:2:59.059999999999945,72.2892
2013-08-28 1:3:9.1399999999998727,80
2013-08-28 1:3:9.8899999999998727,77.9221
2013-08-28 1:3:11.380000000000109,78.9474
2013-08-28 1:3:12.139999999999873,77.9221
2013-08-28 1:3:12.909999999999854,82.1918
2013-08-28 1:3:13.639999999999873,81.0811
2013-08-28 1:3:14.380000000000109,76.9231
2013-08-28 1:3:15.159999999999854,78.9474
2013-08-28 1:3:18.230000000000018,77.9221
2013-08-28 1:3:21.489999999999782,71.4286
2013-08-28 1:4:44.230000000000018,78.9474
2013-08-28 1:4:50.300000000000182,74.0741
2013-08-28 1:5:31.309999999999945,82.1918
2013-08-28 1:5:32.039999999999964,81.0811
2013-08-28 1:5:32.7800000000002,83.3333
2013-08-28 1:5:35.679999999999836,81.0811
2013-08-28 1:6:25.539999999999964,78.9474
2013-08-28 1:6:59.949999999999818,38.2166
2013-08-28 1:7:9.4800000000000182,82.1918
2013-08-28 1:7:17.550000000000182,76.9231
2013-08-28 1:7:59.710000000000036,80
2013-08-28 1:8:0.46000000000003638,80
2013-08-28 1:8:1.2100000000000364,78.9474
2013-08-28 1:8:44.409999999999854,83.3333
2013-08-28 1:8:45.130000000000109,78.9474
2013-08-28 1:9:26.520000000000437,80
2013-08-28 1:9:27.960000000000036,81.0811
2013-08-28 1:9:28.699999999999818,77.9221
2013-08-28 1:9:29.470000000000255,82.1918
2013-08-28 1:10:9.1000000000003638,81.0811
2013-08-28 1:10:10.520000000000437,84.507
2013-08-28 1:10:11.229999999999563,81.0811
2013-08-28 1:10:24.210000000000036,68.1818
2013-08-28 1:11:50.380000000000109,73.1707
2013-08-28 1:11:51.199999999999818,67.4157
2013-08-28 1:11:52.090000000000146,66.6667
2013-08-28 1:11:52.989999999999782,65.9341
2013-08-28 1:11:53.899999999999636,63.8298
2013-08-28 1:11:54.840000000000146,63.1579
2013-08-28 1:11:55.789999999999964,63.8298
2013-08-28 1:11:56.729999999999563,64.5161
2013-08-28 1:11:57.659999999999854,63.8298
2013-08-28 1:11:58.600000000000364,65.9341
2013-08-28 1:11:59.510000000000218,65.2174
2013-08-28 1:12:0.43000000000029104,66.6667
2013-08-28 1:12:1.3299999999999272,68.1818
2013-08-28 1:12:2.2100000000000364,68.9655
2013-08-28 1:12:3.0799999999999272,69.7674
2013-08-28 1:12:3.9399999999995998,70.5882
2013-08-28 1:12:4.7899999999999636,72.2892
2013-08-28 1:12:5.6199999999998909,71.4286
2013-08-28 1:12:6.4600000000000364,73.1707
2013-08-28 1:12:13.510000000000218,80
2013-08-28 1:12:54.239999999999782,80
2013-08-28 1:12:56.4399999999996,78.9474
2013-08-28 1:12:57.199999999999818,84.507
2013-08-28 1:12:57.909999999999854,82.1918
2013-08-28 1:13:31.520000000000437,82.1918
2013-08-28 1:13:32.25,80
2013-08-28 1:14:21.260000000000218,82.1918
2013-08-28 1:14:24.140000000000327,81.0811
2013-08-28 1:14:29.350000000000364,75
2013-08-28 1:15:2.0299999999997453,77.9221
2013-08-28 1:15:2.8000000000001819,77.9221
2013-08-28 1:15:3.569999999999709,76.9231
2013-08-28 1:15:4.3500000000003638,75.9494
2013-08-28 1:15:5.1400000000003274,75
2013-08-28 1:15:5.9399999999995998,74.0741
2013-08-28 1:15:6.75,73.1707
2013-08-28 1:15:10.010000000000218,76.9231
2013-08-28 1:15:10.789999999999964,75.9494
2013-08-28 1:15:11.579999999999927,71.4286
2013-08-28 1:15:41.470000000000255,81.0811
2013-08-28 1:15:42.210000000000036,81.0811
2013-08-28 1:15:42.949999999999818,75.9494
2013-08-28 1:15:43.739999999999782,77.9221
2013-08-28 1:15:49.3100000000004,73.1707
2013-08-28 1:16:27.029999999999745,80
2013-08-28 1:16:32.979999999999563,80
2013-08-28 1:17:52.029999999999745,39.2157
