Time,Datapoint
2013-08-28 0:0:1,71.4286,1
2013-08-28 0:0:2,72.2892,0
2013-08-28 0:0:2,72.2892,0
2013-08-28 0:0:3,68.1818,0
2013-08-28 0:0:4,64.5161,0
2013-08-28 0:0:5,61.2245,0
2013-08-28 0:0:6,63.8298,0
2013-08-28 0:0:7,64.5161,0
2013-08-28 0:0:8,64.5161,0
2013-08-28 0:0:9,59.4059,0
2013-08-28 0:0:10,58.8235,0
2013-08-28 0:0:11,59.4059,0
2013-08-28 0:0:12,60.6061,0
2013-08-28 0:0:13,61.8557,0
2013-08-28 0:0:14,63.1579,0
2013-08-28 0:0:15,61.2245,0
2013-08-28 0:0:16,60,0
2013-08-28 0:0:17,63.1579,0
2013-08-28 0:0:18,66.6667,0
2013-08-28 0:0:19,70.5882,0
2013-08-28 0:0:19,69.7674,0
2013-08-28 0:0:20,61.8557,0
2013-08-28 0:0:21,64.5161,0
2013-08-28 0:0:22,64.5161,0
2013-08-28 0:0:23,72.2892,0
2013-08-28 0:0:26,74.0741,1
2013-08-28 0:0:26,74.0741,0
2013-08-28 0:0:27,71.4286,0
2013-08-28 0:0:28,71.4286,0
2013-08-28 0:0:29,74.0741,0
2013-08-28 0:0:30,73.1707,0
2013-08-28 0:0:30,66.6667,0
2013-08-28 0:0:31,60,0
2013-08-28 0:0:32,64.5161,0
2013-08-28 0:0:33,68.1818,0
2013-08-28 0:0:34,69.7674,0
2013-08-28 0:0:35,70.5882,0
2013-08-28 0:0:36,68.9655,0
2013-08-28 0:0:37,67.4157,0
2013-08-28 0:0:38,65.9341,0
2013-08-28 0:0:39,65.2174,0
2013-08-28 0:0:39,68.1818,0
2013-08-28 0:0:40,61.8557,0
2013-08-28 0:0:41,60,0
2013-08-28 0:0:42,63.8298,0
2013-08-28 0:0:43,69.7674,0
2013-08-28 0:0:44,73.1707,0
2013-08-28 0:0:45,72.2892,0
2013-08-28 0:0:46,68.1818,0
2013-08-28 0:0:47,68.1818,0
2013-08-28 0:0:48,68.1818,0
2013-08-28 0:0:48,65.2174,0
2013-08-28 0:0:49,66.6667,0
2013-08-28 0:0:50,67.4157,0
2013-08-28 0:0:51,64.5161,0
2013-08-28 0:0:52,66.6667,0
2013-08-28 0:0:53,66.6667,0
2013-08-28 0:0:54,65.9341,0
2013-08-28 0:0:55,65.9341,0
2013-08-28 0:0:56,68.1818,0
2013-08-28 0:0:57,68.1818,0
2013-08-28 0:0:57,64.5161,0
2013-08-28 0:0:58,67.4157,0
2013-08-28 0:0:59,68.1818,0
2013-08-28 0:1:0,65.9341,0
2013-08-28 0:1:1,67.4157,0
2013-08-28 0:1:2,68.9655,0
2013-08-28 0:1:3,66.6667,0
2013-08-28 0:1:4,71.4286,0
2013-08-28 0:1:5,72.2892,0
2013-08-28 0:1:5,72.2892,0
2013-08-28 0:1:6,65.2174,0
2013-08-28 0:1:7,68.9655,0
2013-08-28 0:1:8,69.7674,0
2013-08-28 0:1:9,71.4286,0
2013-08-28 0:1:10,68.9655,0
2013-08-28 0:1:11,71.4286,0
2013-08-28 0:1:11,71.4286,0
2013-08-28 0:1:12,70.5882,0
2013-08-28 0:1:13,72.2892,0
2013-08-28 0:1:14,75.9494,0
2013-08-28 0:1:15,74.0741,0
2013-08-28 0:1:16,71.4286,0
2013-08-28 0:1:16,71.4286,0
2013-08-28 0:1:17,74.0741,0
2013-08-28 0:1:18,76.9231,0
2013-08-28 0:1:19,75.9494,0
2013-08-28 0:1:20,70.5882,0
2013-08-28 0:1:20,69.7674,0
2013-08-28 0:1:21,65.2174,0
2013-08-28 0:1:22,69.7674,0
2013-08-28 0:1:23,74.0741,0
2013-08-28 0:1:24,75,0
2013-08-28 0:1:25,74.0741,0
2013-08-28 0:1:25,70.5882,0
2013-08-28 0:1:26,68.1818,0
2013-08-28 0:1:27,70.5882,0
2013-08-28 0:1:28,73.1707,0
2013-08-28 0:1:29,77.9221,0
2013-08-28 0:1:30,81.0811,0
2013-08-28 0:1:32,76.9231,1
2013-08-28 0:1:33,72.2892,0
2013-08-28 0:1:33,68.1818,0
2013-08-28 0:1:34,68.9655,0
2013-08-28 0:1:35,70.5882,0
2013-08-28 0:1:36,72.2892,0
2013-08-28 0:1:37,73.1707,0
2013-08-28 0:1:38,71.4286,0
2013-08-28 0:1:39,75,0
2013-08-28 0:1:39,75.9494,0
2013-08-28 0:1:40,76.9231,0
2013-08-28 0:1:41,68.9655,0
2013-08-28 0:1:42,71.4286,0
2013-08-28 0:1:43,67.4157,0
2013-08-28 0:1:43,75,0
2013-08-28 0:1:44,75.9494,0
2013-08-28 0:1:45,68.9655,0
2013-08-28 0:1:46,65.2174,0
2013-08-28 0:1:47,68.1818,0
2013-08-28 0:1:48,70.5882,0
2013-08-28 0:1:49,72.2892,0
2013-08-28 0:1:49,70.5882,0
2013-08-28 0:1:50,65.2174,0
2013-08-28 0:1:51,63.8298,0
2013-08-28 0:1:52,67.4157,0
2013-08-28 0:1:53,70.5882,0
2013-08-28 0:1:54,73.1707,0
2013-08-28 0:1:55,72.2892,0
2013-08-28 0:1:56,70.5882,0
2013-08-28 0:1:56,70.5882,0
2013-08-28 0:1:57,75,0
2013-08-28 0:1:58,73.1707,0
2013-08-28 0:1:59,66.6667,0
2013-08-28 0:2:0,65.2174,0
2013-08-28 0:2:1,68.9655,0
2013-08-28 0:2:2,72.2892,0
2013-08-28 0:2:2,68.1818,0
2013-08-28 0:2:3,65.2174,0
2013-08-28 0:2:4,64.5161,0
2013-08-28 0:2:5,65.2174,0
2013-08-28 0:2:6,67.4157,0
2013-08-28 0:2:7,65.2174,0
2013-08-28 0:2:8,63.8298,0
2013-08-28 0:2:9,65.9341,0
2013-08-28 0:2:10,68.9655,0
2013-08-28 0:2:11,68.1818,0
2013-08-28 0:2:11,66.6667,0
2013-08-28 0:2:12,65.9341,0
2013-08-28 0:2:13,68.9655,0
2013-08-28 0:2:14,76.9231,0
2013-08-28 0:2:16,74.0741,1
2013-08-28 0:2:18,65.2174,1
2013-08-28 0:2:19,70.5882,0
2013-08-28 0:2:20,76.9231,0
2013-08-28 0:2:21,80,0
2013-08-28 0:2:21,80,0
2013-08-28 0:2:23,68.9655,1
2013-08-28 0:2:24,68.9655,0
2013-08-28 0:2:25,71.4286,0
2013-08-28 0:2:26,74.0741,0
2013-08-28 0:2:26,77.9221,0
2013-08-28 0:2:27,81.0811,0
2013-08-28 0:2:28,82.1918,0
2013-08-28 0:2:29,78.9474,0
2013-08-28 0:2:29,75,0
2013-08-28 0:2:30,75.9494,0
2013-08-28 0:2:31,75.9494,0
2013-08-28 0:2:32,75.9494,0
2013-08-28 0:2:33,77.9221,0
2013-08-28 0:2:33,80,0
2013-08-28 0:2:34,82.1918,0
2013-08-28 0:2:35,84.507,0
2013-08-28 0:2:36,86.9565,0
2013-08-28 0:2:37,89.5522,1
2013-08-28 0:2:38,86.9565,0
2013-08-28 0:2:38,84.507,0
2013-08-28 0:2:39,83.3333,0
2013-08-28 0:2:40,85.7143,0
2013-08-28 0:2:40,85.7143,0
2013-08-28 0:2:41,81.0811,0
2013-08-28 0:2:42,71.4286,0
2013-08-28 0:2:45,66.6667,1
2013-08-28 0:2:46,65.9341,0
2013-08-28 0:2:47,67.4157,0
2013-08-28 0:2:48,67.4157,0
2013-08-28 0:2:49,65.9341,0
2013-08-28 0:2:50,72.2892,0
2013-08-28 0:2:51,75,0
2013-08-28 0:2:52,78.9474,0
2013-08-28 0:2:52,82.1918,0
2013-08-28 0:2:53,83.3333,0
2013-08-28 0:2:54,82.1918,0
2013-08-28 0:2:54,83.3333,0
2013-08-28 0:2:55,82.1918,0
2013-08-28 0:2:56,78.9474,0
2013-08-28 0:2:57,78.9474,0
2013-08-28 0:2:57,76.9231,0
2013-08-28 0:2:58,76.9231,0
2013-08-28 0:2:59,78.9474,0
2013-08-28 0:3:0,80,0
2013-08-28 0:3:0,81.0811,0
2013-08-28 0:3:1,74.0741,0
2013-08-28 0:3:2,70.5882,0
2013-08-28 0:3:3,72.2892,0
2013-08-28 0:3:4,75.9494,0
2013-08-28 0:3:5,76.9231,0
2013-08-28 0:3:5,77.9221,0
2013-08-28 0:3:6,78.9474,0
2013-08-28 0:3:7,80,0
2013-08-28 0:3:8,82.1918,0
2013-08-28 0:3:8,81.0811,0
2013-08-28 0:3:9,82.1918,0
2013-08-28 0:3:10,83.3333,0
2013-08-28 0:3:10,83.3333,0
2013-08-28 0:3:11,84.507,0
2013-08-28 0:3:12,85.7143,0
2013-08-28 0:3:13,88.2353,0
2013-08-28 0:3:13,90.9091,0
2013-08-28 0:3:14,90.9091,0
2013-08-28 0:3:15,93.75,0
2013-08-28 0:3:15,95.2381,0
2013-08-28 0:3:16,95.2381,0
2013-08-28 0:3:17,96.7742,0
2013-08-28 0:3:18,98.3607,1
2013-08-28 0:3:18,98.3607,0
2013-08-28 0:3:19,93.75,0
2013-08-28 0:3:22,80,1
2013-08-28 0:3:23,78.9474,0
2013-08-28 0:3:23,75.9494,0
2013-08-28 0:3:24,75,0
2013-08-28 0:3:25,75.9494,0
2013-08-28 0:3:26,75,0
2013-08-28 0:3:27,76.9231,0
2013-08-28 0:3:27,76.9231,0
2013-08-28 0:3:28,71.4286,0
2013-08-28 0:3:29,72.2892,0
2013-08-28 0:3:30,75,0
2013-08-28 0:3:31,72.2892,0
2013-08-28 0:3:31,72.2892,0
2013-08-28 0:3:32,76.9231,0
2013-08-28 0:3:33,76.9231,0
2013-08-28 0:3:34,75.9494,0
2013-08-28 0:3:35,72.2892,0
2013-08-28 0:3:35,72.2892,0
2013-08-28 0:3:36,78.9474,0
2013-08-28 0:3:37,84.507,0
2013-08-28 0:3:38,84.507,0
2013-08-28 0:3:38,86.9565,0
2013-08-28 0:3:39,83.3333,0
2013-08-28 0:3:40,81.0811,0
2013-08-28 0:3:41,74.0741,0
2013-08-28 0:3:41,77.9221,0
2013-08-28 0:3:42,74.0741,0
2013-08-28 0:3:43,73.1707,0
2013-08-28 0:3:44,71.4286,0
2013-08-28 0:3:45,76.9231,0
2013-08-28 0:3:45,80,0
2013-08-28 0:3:46,80,0
2013-08-28 0:3:47,83.3333,0
2013-08-28 0:3:48,84.507,0
2013-08-28 0:3:48,88.2353,0
2013-08-28 0:3:49,88.2353,0
2013-08-28 0:3:50,85.7143,0
2013-08-28 0:3:50,83.3333,0
2013-08-28 0:3:51,77.9221,0
2013-08-28 0:3:52,73.1707,0
2013-08-28 0:3:53,75,0
2013-08-28 0:3:54,77.9221,0
2013-08-28 0:3:54,78.9474,0
2013-08-28 0:3:55,81.0811,0
2013-08-28 0:3:56,78.9474,0
2013-08-28 0:3:57,78.9474,0
2013-08-28 0:3:57,78.9474,0
2013-08-28 0:3:58,77.9221,0
2013-08-28 0:3:59,75,0
2013-08-28 0:4:0,75,0
2013-08-28 0:4:0,75.9494,0
2013-08-28 0:4:1,74.0741,0
2013-08-28 0:4:2,75.9494,0
2013-08-28 0:4:3,74.0741,0
2013-08-28 0:4:4,75,0
2013-08-28 0:4:4,75,0
2013-08-28 0:4:5,75.9494,0
2013-08-28 0:4:6,75.9494,0
2013-08-28 0:4:7,75.9494,0
2013-08-28 0:4:8,78.9474,0
2013-08-28 0:4:8,83.3333,0
2013-08-28 0:4:9,83.3333,0
2013-08-28 0:4:10,82.1918,0
2013-08-28 0:4:11,85.7143,0
2013-08-28 0:4:11,82.1918,0
2013-08-28 0:4:12,78.9474,0
2013-08-28 0:4:13,76.9231,0
2013-08-28 0:4:14,75,0
2013-08-28 0:4:14,76.9231,0
2013-08-28 0:4:15,75.9494,0
2013-08-28 0:4:16,76.9231,0
2013-08-28 0:4:17,76.9231,0
2013-08-28 0:4:17,76.9231,0
2013-08-28 0:4:18,75.9494,0
2013-08-28 0:4:19,76.9231,0
2013-08-28 0:4:20,75.9494,0
2013-08-28 0:4:21,74.0741,0
2013-08-28 0:4:21,73.1707,0
2013-08-28 0:4:22,75,0
2013-08-28 0:4:23,75,0
2013-08-28 0:4:24,75,0
2013-08-28 0:4:25,75.9494,0
2013-08-28 0:4:25,77.9221,0
2013-08-28 0:4:26,80,0
2013-08-28 0:4:27,80,0
2013-08-28 0:4:28,75.9494,0
2013-08-28 0:4:28,72.2892,0
2013-08-28 0:4:29,69.7674,0
2013-08-28 0:4:30,75.9494,0
2013-08-28 0:4:31,81.0811,0
2013-08-28 0:4:32,82.1918,0
2013-08-28 0:4:32,82.1918,0
2013-08-28 0:4:33,86.9565,0
2013-08-28 0:4:34,85.7143,0
2013-08-28 0:4:35,75.9494,0
2013-08-28 0:4:35,74.0741,0
2013-08-28 0:4:36,69.7674,0
2013-08-28 0:4:39,68.9655,1
2013-08-28 0:4:40,75.9494,0
2013-08-28 0:4:40,78.9474,0
2013-08-28 0:4:41,80,0
2013-08-28 0:4:42,78.9474,0
2013-08-28 0:4:43,76.9231,0
2013-08-28 0:4:44,71.4286,0
2013-08-28 0:4:44,72.2892,0
2013-08-28 0:4:45,74.0741,0
2013-08-28 0:4:46,75.9494,0
2013-08-28 0:4:47,76.9231,0
2013-08-28 0:4:48,74.0741,0
2013-08-28 0:4:48,72.2892,0
2013-08-28 0:4:49,69.7674,0
2013-08-28 0:4:50,66.6667,0
2013-08-28 0:4:51,69.7674,0
2013-08-28 0:4:52,73.1707,0
2013-08-28 0:4:53,75.9494,0
2013-08-28 0:4:53,77.9221,0
2013-08-28 0:4:54,75.9494,0
2013-08-28 0:4:55,72.2892,0
2013-08-28 0:4:56,68.9655,0
2013-08-28 0:4:57,69.7674,0
2013-08-28 0:4:58,72.2892,0
2013-08-28 0:4:58,71.4286,0
2013-08-28 0:4:59,72.2892,0
2013-08-28 0:5:0,74.0741,0
2013-08-28 0:5:1,70.5882,0
2013-08-28 0:5:2,67.4157,0
2013-08-28 0:5:3,66.6667,0
2013-08-28 0:5:4,65.9341,0
2013-08-28 0:5:4,69.7674,0
2013-08-28 0:5:5,74.0741,0
2013-08-28 0:5:6,71.4286,0
2013-08-28 0:5:7,70.5882,0
2013-08-28 0:5:8,69.7674,0
2013-08-28 0:5:9,68.9655,0
2013-08-28 0:5:10,67.4157,0
2013-08-28 0:5:10,71.4286,0
2013-08-28 0:5:11,74.0741,0
2013-08-28 0:5:12,75,0
2013-08-28 0:5:13,75.9494,0
2013-08-28 0:5:14,73.1707,0
2013-08-28 0:5:14,75,0
2013-08-28 0:5:15,75,0
2013-08-28 0:5:16,80,0
2013-08-28 0:5:17,81.0811,0
2013-08-28 0:5:18,83.3333,0
2013-08-28 0:5:18,85.7143,0
2013-08-28 0:5:19,86.9565,0
2013-08-28 0:5:20,86.9565,0
2013-08-28 0:5:20,85.7143,0
2013-08-28 0:5:21,80,0
2013-08-28 0:5:22,72.2892,0
2013-08-28 0:5:23,68.9655,0
2013-08-28 0:5:24,71.4286,0
2013-08-28 0:5:24,73.1707,0
2013-08-28 0:5:25,75,0
2013-08-28 0:5:26,74.0741,0
2013-08-28 0:5:27,73.1707,0
2013-08-28 0:5:28,70.5882,0
2013-08-28 0:5:28,69.7674,0
2013-08-28 0:5:29,72.2892,0
2013-08-28 0:5:30,74.0741,0
2013-08-28 0:5:31,74.0741,0
2013-08-28 0:5:32,70.5882,0
2013-08-28 0:5:33,65.2174,0
2013-08-28 0:5:34,63.1579,0
2013-08-28 0:5:34,65.9341,0
2013-08-28 0:5:35,71.4286,0
2013-08-28 0:5:36,73.1707,0
2013-08-28 0:5:37,72.2892,0
2013-08-28 0:5:38,70.5882,0
2013-08-28 0:5:39,68.1818,0
2013-08-28 0:5:40,67.4157,0
2013-08-28 0:5:41,72.2892,0
2013-08-28 0:5:41,73.1707,0
2013-08-28 0:5:42,71.4286,0
2013-08-28 0:5:43,67.4157,0
2013-08-28 0:5:44,65.2174,0
2013-08-28 0:5:45,67.4157,0
2013-08-28 0:5:46,65.9341,0
2013-08-28 0:5:47,67.4157,0
2013-08-28 0:5:48,68.9655,0
2013-08-28 0:5:48,68.9655,0
2013-08-28 0:5:49,67.4157,0
2013-08-28 0:5:50,70.5882,0
2013-08-28 0:5:51,72.2892,0
2013-08-28 0:5:52,78.9474,0
2013-08-28 0:5:53,80,0
2013-08-28 0:5:53,77.9221,0
2013-08-28 0:5:54,70.5882,0
2013-08-28 0:5:55,69.7674,0
2013-08-28 0:5:56,73.1707,0
2013-08-28 0:5:57,75,0
2013-08-28 0:5:57,75.9494,0
2013-08-28 0:5:58,75,0
2013-08-28 0:5:59,70.5882,0
2013-08-28 0:6:0,71.4286,0
2013-08-28 0:6:1,70.5882,0
2013-08-28 0:6:2,68.9655,0
2013-08-28 0:6:2,68.9655,0
2013-08-28 0:6:3,68.1818,0
2013-08-28 0:6:4,71.4286,0
2013-08-28 0:6:5,71.4286,0
2013-08-28 0:6:6,73.1707,0
2013-08-28 0:6:7,72.2892,0
2013-08-28 0:6:8,73.1707,0
2013-08-28 0:6:8,75.9494,0
2013-08-28 0:6:9,80,0
2013-08-28 0:6:10,83.3333,0
2013-08-28 0:6:11,82.1918,0
2013-08-28 0:6:11,78.9474,0
2013-08-28 0:6:13,66.6667,1
2013-08-28 0:6:14,70.5882,0
2013-08-28 0:6:15,73.1707,0
2013-08-28 0:6:16,75,0
2013-08-28 0:6:16,74.0741,0
2013-08-28 0:6:17,75,0
2013-08-28 0:6:18,76.9231,0
2013-08-28 0:6:19,76.9231,0
2013-08-28 0:6:20,76.9231,0
2013-08-28 0:6:20,75,0
2013-08-28 0:6:21,75.9494,0
2013-08-28 0:6:22,72.2892,0
2013-08-28 0:6:23,70.5882,0
2013-08-28 0:6:24,70.5882,0
2013-08-28 0:6:24,72.2892,0
2013-08-28 0:6:25,73.1707,0
2013-08-28 0:6:26,74.0741,0
2013-08-28 0:6:27,76.9231,0
2013-08-28 0:6:28,80,0
2013-08-28 0:6:28,80,0
2013-08-28 0:6:29,78.9474,0
2013-08-28 0:6:30,78.9474,0
2013-08-28 0:6:31,76.9231,0
2013-08-28 0:6:31,75,0
2013-08-28 0:6:32,75,0
2013-08-28 0:6:33,75,0
2013-08-28 0:6:34,75.9494,0
2013-08-28 0:6:35,75.9494,0
2013-08-28 0:6:35,75,0
2013-08-28 0:6:36,80,0
2013-08-28 0:6:37,80,0
2013-08-28 0:6:38,80,0
2013-08-28 0:6:38,76.9231,0
2013-08-28 0:6:39,75,0
2013-08-28 0:6:40,75,0
2013-08-28 0:6:41,74.0741,0
2013-08-28 0:6:42,72.2892,0
2013-08-28 0:6:43,70.5882,0
2013-08-28 0:6:43,68.1818,0
2013-08-28 0:6:44,68.9655,0
2013-08-28 0:6:45,70.5882,0
2013-08-28 0:6:46,70.5882,0
2013-08-28 0:6:47,64.5161,0
2013-08-28 0:6:48,62.5,0
2013-08-28 0:6:49,65.2174,0
2013-08-28 0:6:50,67.4157,0
2013-08-28 0:6:51,71.4286,0
2013-08-28 0:6:51,73.1707,0
2013-08-28 0:6:52,75.9494,0
2013-08-28 0:6:53,75.9494,0
2013-08-28 0:6:54,75,0
2013-08-28 0:6:55,75,0
2013-08-28 0:6:55,74.0741,0
2013-08-28 0:6:56,75.9494,0
2013-08-28 0:6:57,72.2892,0
2013-08-28 0:6:58,69.7674,0
2013-08-28 0:6:59,71.4286,0
2013-08-28 0:6:59,73.1707,0
2013-08-28 0:7:0,75,0
2013-08-28 0:7:1,75,0
2013-08-28 0:7:2,80,0
2013-08-28 0:7:3,80,0
2013-08-28 0:7:3,78.9474,0
2013-08-28 0:7:4,77.9221,0
2013-08-28 0:7:5,74.0741,0
2013-08-28 0:7:6,71.4286,0
2013-08-28 0:7:7,75.9494,0
2013-08-28 0:7:7,76.9231,0
2013-08-28 0:7:8,78.9474,0
2013-08-28 0:7:9,81.0811,0
2013-08-28 0:7:10,83.3333,0
2013-08-28 0:7:10,85.7143,0
2013-08-28 0:7:11,86.9565,0
2013-08-28 0:7:12,86.9565,0
2013-08-28 0:7:12,89.5522,0
2013-08-28 0:7:13,90.9091,0
2013-08-28 0:7:14,92.3077,0
2013-08-28 0:7:14,90.9091,0
2013-08-28 0:7:15,92.3077,0
2013-08-28 0:7:16,92.3077,0
2013-08-28 0:7:16,92.3077,0
2013-08-28 0:7:17,89.5522,0
2013-08-28 0:7:18,83.3333,0
2013-08-28 0:7:18,82.1918,0
2013-08-28 0:7:19,83.3333,0
2013-08-28 0:7:20,82.1918,0
2013-08-28 0:7:21,83.3333,0
2013-08-28 0:7:21,85.7143,0
2013-08-28 0:7:22,86.9565,0
2013-08-28 0:7:23,88.2353,0
2013-08-28 0:7:23,89.5522,0
2013-08-28 0:7:24,86.9565,0
2013-08-28 0:7:25,85.7143,0
2013-08-28 0:7:25,82.1918,0
2013-08-28 0:7:26,83.3333,0
2013-08-28 0:7:27,84.507,0
2013-08-28 0:7:28,84.507,0
2013-08-28 0:7:28,84.507,0
2013-08-28 0:7:29,81.0811,0
2013-08-28 0:7:30,78.9474,0
2013-08-28 0:7:31,78.9474,0
2013-08-28 0:7:31,80,0
2013-08-28 0:7:32,80,0
2013-08-28 0:7:33,81.0811,0
2013-08-28 0:7:34,78.9474,0
2013-08-28 0:7:34,77.9221,0
2013-08-28 0:7:35,78.9474,0
2013-08-28 0:7:36,75.9494,0
2013-08-28 0:7:37,78.9474,0
2013-08-28 0:7:37,78.9474,0
2013-08-28 0:7:38,81.0811,0
2013-08-28 0:7:39,82.1918,0
2013-08-28 0:7:40,84.507,0
2013-08-28 0:7:40,83.3333,0
2013-08-28 0:7:41,82.1918,0
2013-08-28 0:7:42,81.0811,0
2013-08-28 0:7:43,77.9221,0
2013-08-28 0:7:43,77.9221,0
2013-08-28 0:7:44,78.9474,0
2013-08-28 0:7:45,80,0
2013-08-28 0:7:46,82.1918,0
2013-08-28 0:7:46,83.3333,0
2013-08-28 0:7:47,84.507,0
2013-08-28 0:7:48,84.507,0
2013-08-28 0:7:48,83.3333,0
2013-08-28 0:7:49,85.7143,0
2013-08-28 0:7:50,84.507,0
2013-08-28 0:7:51,84.507,0
2013-08-28 0:7:51,86.9565,0
2013-08-28 0:7:52,88.2353,0
2013-08-28 0:7:53,86.9565,0
2013-08-28 0:7:53,86.9565,0
2013-08-28 0:7:54,86.9565,0
2013-08-28 0:7:55,88.2353,0
2013-08-28 0:7:55,86.9565,0
2013-08-28 0:7:56,88.2353,0
2013-08-28 0:7:57,89.5522,0
2013-08-28 0:7:57,90.9091,0
2013-08-28 0:7:58,90.9091,0
2013-08-28 0:7:59,90.9091,0
2013-08-28 0:7:59,90.9091,0
2013-08-28 0:8:0,92.3077,0
2013-08-28 0:8:1,93.75,0
2013-08-28 0:8:1,92.3077,0
2013-08-28 0:8:2,95.2381,0
2013-08-28 0:8:3,95.2381,0
2013-08-28 0:8:3,93.75,0
2013-08-28 0:8:4,92.3077,0
2013-08-28 0:8:5,89.5522,0
2013-08-28 0:8:5,89.5522,0
2013-08-28 0:8:6,89.5522,0
2013-08-28 0:8:7,88.2353,0
2013-08-28 0:8:9,90.9091,1
2013-08-28 0:8:10,89.5522,0
2013-08-28 0:8:11,90.9091,0
2013-08-28 0:8:11,92.3077,0
2013-08-28 0:8:12,92.3077,0
2013-08-28 0:8:13,85.7143,0
2013-08-28 0:8:13,78.9474,0
2013-08-28 0:8:14,80,0
2013-08-28 0:8:15,82.1918,0
2013-08-28 0:8:16,83.3333,0
2013-08-28 0:8:16,81.0811,0
2013-08-28 0:8:17,81.0811,0
2013-08-28 0:8:18,83.3333,0
2013-08-28 0:8:18,84.507,0
2013-08-28 0:8:19,83.3333,0
2013-08-28 0:8:20,83.3333,0
2013-08-28 0:8:21,84.507,0
2013-08-28 0:8:21,83.3333,0
2013-08-28 0:8:22,85.7143,0
2013-08-28 0:8:23,86.9565,0
2013-08-28 0:8:23,86.9565,0
2013-08-28 0:8:24,90.9091,0
2013-08-28 0:8:25,90.9091,0
2013-08-28 0:8:25,90.9091,0
2013-08-28 0:8:26,92.3077,0
2013-08-28 0:8:27,95.2381,0
2013-08-28 0:8:27,93.75,0
2013-08-28 0:8:28,95.2381,0
2013-08-28 0:8:29,95.2381,0
2013-08-28 0:8:29,95.2381,0
2013-08-28 0:8:30,93.75,0
2013-08-28 0:8:31,93.75,0
2013-08-28 0:8:31,86.9565,0
2013-08-28 0:8:32,84.507,0
2013-08-28 0:8:33,81.0811,0
2013-08-28 0:8:33,78.9474,0
2013-08-28 0:8:34,80,0
2013-08-28 0:8:35,81.0811,0
2013-08-28 0:8:36,82.1918,0
2013-08-28 0:8:36,80,0
2013-08-28 0:8:37,78.9474,0
2013-08-28 0:8:38,80,0
2013-08-28 0:8:39,82.1918,0
2013-08-28 0:8:39,85.7143,0
2013-08-28 0:8:40,86.9565,0
2013-08-28 0:8:41,89.5522,0
2013-08-28 0:8:41,90.9091,0
2013-08-28 0:8:42,89.5522,0
2013-08-28 0:8:43,86.9565,0
2013-08-28 0:8:43,78.9474,0
2013-08-28 0:8:44,75.9494,0
2013-08-28 0:8:46,72.2892,1
2013-08-28 0:8:47,73.1707,0
2013-08-28 0:8:47,75,0
2013-08-28 0:8:48,76.9231,0
2013-08-28 0:8:49,76.9231,0
2013-08-28 0:8:50,75.9494,0
2013-08-28 0:8:51,75.9494,0
2013-08-28 0:8:51,68.9655,0
2013-08-28 0:8:53,68.1818,1
2013-08-28 0:8:54,68.9655,0
2013-08-28 0:8:55,71.4286,0
2013-08-28 0:8:56,74.0741,0
2013-08-28 0:8:56,75.9494,0
2013-08-28 0:8:57,77.9221,0
2013-08-28 0:8:58,77.9221,0
2013-08-28 0:8:59,69.7674,0
2013-08-28 0:9:2,67.4157,1
2013-08-28 0:9:3,69.7674,0
2013-08-28 0:9:3,68.9655,0
2013-08-28 0:9:4,63.8298,0
2013-08-28 0:9:5,63.8298,0
2013-08-28 0:9:6,61.8557,0
2013-08-28 0:9:7,63.1579,0
2013-08-28 0:9:8,67.4157,0
2013-08-28 0:9:9,66.6667,0
2013-08-28 0:9:10,67.4157,0
2013-08-28 0:9:11,72.2892,0
2013-08-28 0:9:12,75.9494,0
2013-08-28 0:9:12,80,0
2013-08-28 0:9:13,78.9474,0
2013-08-28 0:9:14,76.9231,0
2013-08-28 0:9:15,76.9231,0
2013-08-28 0:9:15,81.0811,0
2013-08-28 0:9:16,83.3333,0
2013-08-28 0:9:18,85.7143,1
2013-08-28 0:9:18,81.0811,0
2013-08-28 0:9:19,75.9494,0
2013-08-28 0:9:20,74.0741,0
2013-08-28 0:9:21,75.9494,0
2013-08-28 0:9:21,77.9221,0
2013-08-28 0:9:22,75.9494,0
2013-08-28 0:9:23,76.9231,0
2013-08-28 0:9:24,71.4286,0
2013-08-28 0:9:25,71.4286,0
2013-08-28 0:9:25,73.1707,0
2013-08-28 0:9:26,75,0
2013-08-28 0:9:27,76.9231,0
2013-08-28 0:9:28,75,0
2013-08-28 0:9:29,72.2892,0
2013-08-28 0:9:29,74.0741,0
2013-08-28 0:9:30,77.9221,0
2013-08-28 0:9:31,81.0811,0
2013-08-28 0:9:32,81.0811,0
2013-08-28 0:9:33,82.1918,0
2013-08-28 0:9:33,76.9231,0
2013-08-28 0:9:34,69.7674,0
2013-08-28 0:9:35,72.2892,0
2013-08-28 0:9:36,75,0
2013-08-28 0:9:37,71.4286,0
2013-08-28 0:9:37,71.4286,0
2013-08-28 0:9:38,73.1707,0
2013-08-28 0:9:39,74.0741,0
2013-08-28 0:9:40,73.1707,0
2013-08-28 0:9:41,70.5882,0
2013-08-28 0:9:41,68.1818,0
2013-08-28 0:9:42,68.9655,0
2013-08-28 0:9:43,71.4286,0
2013-08-28 0:9:44,71.4286,0
2013-08-28 0:9:45,68.9655,0
2013-08-28 0:9:46,69.7674,0
2013-08-28 0:9:47,70.5882,0
2013-08-28 0:9:48,70.5882,0
2013-08-28 0:9:48,75.9494,0
2013-08-28 0:9:49,80,0
2013-08-28 0:9:50,80,0
2013-08-28 0:9:51,74.0741,0
2013-08-28 0:9:51,64.5161,0
2013-08-28 0:9:52,72.2892,0
2013-08-28 0:9:53,76.9231,0
2013-08-28 0:9:54,78.9474,0
2013-08-28 0:9:55,75.9494,0
2013-08-28 0:9:56,76.9231,0
2013-08-28 0:9:56,77.9221,0
2013-08-28 0:9:57,76.9231,0
2013-08-28 0:9:58,74.0741,0
2013-08-28 0:9:59,70.5882,0
2013-08-28 0:10:0,71.4286,0
2013-08-28 0:10:0,68.1818,0
2013-08-28 0:10:1,67.4157,0
2013-08-28 0:10:2,68.9655,0
2013-08-28 0:10:3,68.9655,0
2013-08-28 0:10:4,70.5882,0
2013-08-28 0:10:5,70.5882,0
2013-08-28 0:10:6,70.5882,0
2013-08-28 0:10:6,68.1818,0
2013-08-28 0:10:7,61.2245,0
2013-08-28 0:10:8,62.5,0
2013-08-28 0:10:9,65.2174,0
2013-08-28 0:10:10,68.1818,0
2013-08-28 0:10:11,75,0
2013-08-28 0:10:12,78.9474,0
2013-08-28 0:10:13,78.9474,0
2013-08-28 0:10:13,75.9494,0
2013-08-28 0:10:14,73.1707,0
2013-08-28 0:10:15,76.9231,0
2013-08-28 0:10:16,78.9474,0
2013-08-28 0:10:17,77.9221,0
2013-08-28 0:10:17,70.5882,0
2013-08-28 0:10:18,66.6667,0
2013-08-28 0:10:19,69.7674,0
2013-08-28 0:10:20,71.4286,0
2013-08-28 0:10:21,70.5882,0
2013-08-28 0:10:22,65.9341,0
2013-08-28 0:10:24,61.2245,1
2013-08-28 0:10:24,60,0
2013-08-28 0:10:25,61.2245,0
2013-08-28 0:10:26,65.2174,0
2013-08-28 0:10:27,64.5161,0
2013-08-28 0:10:28,65.2174,0
2013-08-28 0:10:29,71.4286,0
2013-08-28 0:10:30,74.0741,0
2013-08-28 0:10:31,76.9231,0
2013-08-28 0:10:32,71.4286,0
2013-08-28 0:10:33,65.2174,0
2013-08-28 0:10:33,67.4157,0
2013-08-28 0:10:34,70.5882,0
2013-08-28 0:10:35,66.6667,0
2013-08-28 0:10:36,68.1818,0
2013-08-28 0:10:37,71.4286,0
2013-08-28 0:10:38,71.4286,0
2013-08-28 0:10:39,68.1818,0
2013-08-28 0:10:40,67.4157,0
2013-08-28 0:10:40,70.5882,0
2013-08-28 0:10:41,68.1818,0
2013-08-28 0:10:42,61.8557,0
2013-08-28 0:10:43,61.2245,0
2013-08-28 0:10:44,67.4157,0
2013-08-28 0:10:45,71.4286,0
2013-08-28 0:10:46,65.9341,0
2013-08-28 0:10:47,68.9655,0
2013-08-28 0:10:48,72.2892,0
2013-08-28 0:10:48,75,0
2013-08-28 0:10:49,71.4286,0
2013-08-28 0:10:50,65.9341,0
2013-08-28 0:10:51,67.4157,0
2013-08-28 0:10:52,69.7674,0
2013-08-28 0:10:53,69.7674,0
2013-08-28 0:10:54,62.5,0
2013-08-28 0:10:55,65.2174,0
2013-08-28 0:10:55,72.2892,0
2013-08-28 0:10:56,78.9474,0
2013-08-28 0:10:59,80,1
2013-08-28 0:11:0,82.1918,0
2013-08-28 0:11:1,85.7143,1
2013-08-28 0:11:2,82.1918,0
2013-08-28 0:11:3,73.1707,0
2013-08-28 0:11:7,61.2245,1
2013-08-28 0:11:8,61.8557,0
2013-08-28 0:11:9,63.1579,0
2013-08-28 0:11:10,63.8298,0
2013-08-28 0:11:11,61.8557,0
2013-08-28 0:11:12,65.9341,0
2013-08-28 0:11:13,71.4286,0
2013-08-28 0:11:14,72.2892,0
2013-08-28 0:11:15,66.6667,0
2013-08-28 0:11:16,64.5161,0
2013-08-28 0:11:17,67.4157,0
2013-08-28 0:11:18,70.5882,0
2013-08-28 0:11:18,67.4157,0
2013-08-28 0:11:19,67.4157,0
2013-08-28 0:11:20,67.4157,0
2013-08-28 0:11:21,68.1818,0
2013-08-28 0:11:22,69.7674,0
2013-08-28 0:11:23,70.5882,0
2013-08-28 0:11:24,63.8298,0
2013-08-28 0:11:25,62.5,0
2013-08-28 0:11:26,65.2174,0
2013-08-28 0:11:27,61.8557,0
2013-08-28 0:11:27,58.8235,0
2013-08-28 0:11:29,75.9494,1
2013-08-28 0:11:31,78.9474,1
2013-08-28 0:11:32,75,0
2013-08-28 0:11:32,75.9494,0
2013-08-28 0:11:33,78.9474,0
2013-08-28 0:11:34,80,0
2013-08-28 0:11:35,76.9231,0
2013-08-28 0:11:36,67.4157,0
2013-08-28 0:11:36,66.6667,0
2013-08-28 0:11:37,61.8557,0
2013-08-28 0:11:38,60.6061,0
2013-08-28 0:11:39,66.6667,0
2013-08-28 0:11:40,65.2174,0
2013-08-28 0:11:41,59.4059,0
2013-08-28 0:11:42,58.2524,0
2013-08-28 0:11:43,60.6061,0
2013-08-28 0:11:44,63.8298,0
2013-08-28 0:11:45,65.2174,0
2013-08-28 0:11:46,64.5161,0
2013-08-28 0:11:47,65.2174,0
2013-08-28 0:11:48,68.9655,0
2013-08-28 0:11:49,70.5882,0
2013-08-28 0:11:50,68.1818,0
2013-08-28 0:11:50,64.5161,0
2013-08-28 0:11:51,65.9341,0
2013-08-28 0:11:52,71.4286,0
2013-08-28 0:11:53,68.9655,0
2013-08-28 0:11:54,64.5161,0
2013-08-28 0:11:55,65.9341,0
2013-08-28 0:11:56,67.4157,0
2013-08-28 0:11:57,72.2892,0
2013-08-28 0:11:58,74.0741,0
2013-08-28 0:11:58,73.1707,0
2013-08-28 0:11:59,71.4286,0
2013-08-28 0:12:0,72.2892,0
2013-08-28 0:12:3,61.2245,1
2013-08-28 0:12:4,65.9341,0
2013-08-28 0:12:5,72.2892,0
2013-08-28 0:12:6,67.4157,0
2013-08-28 0:12:7,63.8298,0
2013-08-28 0:12:8,61.8557,0
2013-08-28 0:12:9,65.2174,0
2013-08-28 0:12:9,65.2174,0
2013-08-28 0:12:10,61.8557,0
2013-08-28 0:12:11,67.4157,0
2013-08-28 0:12:12,65.9341,0
2013-08-28 0:12:13,67.4157,0
2013-08-28 0:12:14,63.1579,0
2013-08-28 0:12:15,65.2174,0
2013-08-28 0:12:16,58.8235,0
2013-08-28 0:12:17,66.6667,0
2013-08-28 0:12:18,69.7674,0
2013-08-28 0:12:19,66.6667,0
2013-08-28 0:12:20,62.5,0
2013-08-28 0:12:21,61.8557,0
2013-08-28 0:12:21,65.9341,0
2013-08-28 0:12:22,68.9655,0
2013-08-28 0:12:23,61.2245,0
2013-08-28 0:12:24,61.2245,0
2013-08-28 0:12:25,68.1818,0
2013-08-28 0:12:26,66.6667,0
2013-08-28 0:12:27,63.8298,0
2013-08-28 0:12:28,64.5161,0
2013-08-28 0:12:29,65.9341,0
2013-08-28 0:12:30,61.8557,0
2013-08-28 0:12:31,65.9341,0
2013-08-28 0:12:32,72.2892,0
2013-08-28 0:12:32,68.1818,0
2013-08-28 0:12:35,75.9494,1
2013-08-28 0:12:36,72.2892,0
2013-08-28 0:12:37,65.2174,0
2013-08-28 0:12:38,68.1818,0
2013-08-28 0:12:39,70.5882,0
2013-08-28 0:12:40,73.1707,0
2013-08-28 0:12:40,73.1707,0
2013-08-28 0:12:41,77.9221,0
2013-08-28 0:12:42,78.9474,0
2013-08-28 0:12:43,74.0741,0
2013-08-28 0:12:44,68.1818,0
2013-08-28 0:12:44,71.4286,0
2013-08-28 0:12:45,70.5882,0
2013-08-28 0:12:46,64.5161,0
2013-08-28 0:12:47,65.9341,0
2013-08-28 0:12:48,69.7674,0
2013-08-28 0:12:49,65.2174,0
2013-08-28 0:12:50,68.9655,0
2013-08-28 0:12:51,68.9655,0
2013-08-28 0:12:51,65.9341,0
2013-08-28 0:12:52,68.1818,0
2013-08-28 0:12:53,69.7674,0
2013-08-28 0:12:54,63.1579,0
2013-08-28 0:12:55,61.2245,0
2013-08-28 0:12:56,65.9341,0
2013-08-28 0:12:57,66.6667,0
2013-08-28 0:12:58,60,0
2013-08-28 0:12:59,60.6061,0
2013-08-28 0:13:0,64.5161,0
2013-08-28 0:13:1,66.6667,0
2013-08-28 0:13:2,75.9494,0
2013-08-28 0:13:3,77.9221,1
2013-08-28 0:13:4,77.9221,0
2013-08-28 0:13:6,83.3333,1
2013-08-28 0:13:10,69.7674,1
2013-08-28 0:13:11,72.2892,0
2013-08-28 0:13:12,70.5882,0
2013-08-28 0:13:12,66.6667,0
2013-08-28 0:13:13,67.4157,0
2013-08-28 0:13:14,68.1818,0
2013-08-28 0:13:15,65.9341,0
2013-08-28 0:13:16,58.2524,0
2013-08-28 0:13:17,58.8235,0
2013-08-28 0:13:18,61.2245,0
2013-08-28 0:13:19,61.2245,0
2013-08-28 0:13:20,58.2524,0
2013-08-28 0:13:21,62.5,0
2013-08-28 0:13:22,60.6061,0
2013-08-28 0:13:23,63.1579,0
2013-08-28 0:13:24,64.5161,0
2013-08-28 0:13:25,65.9341,0
2013-08-28 0:13:26,63.8298,0
2013-08-28 0:13:27,66.6667,0
2013-08-28 0:13:28,69.7674,0
2013-08-28 0:13:28,65.2174,0
2013-08-28 0:13:29,65.9341,0
2013-08-28 0:13:30,66.6667,0
2013-08-28 0:13:31,65.2174,0
2013-08-28 0:13:32,72.2892,0
2013-08-28 0:13:33,68.9655,0
2013-08-28 0:13:34,71.4286,0
2013-08-28 0:13:35,63.1579,0
2013-08-28 0:13:36,63.1579,0
2013-08-28 0:13:37,68.1818,0
2013-08-28 0:13:37,66.6667,0
2013-08-28 0:13:38,70.5882,0
2013-08-28 0:13:39,74.0741,0
2013-08-28 0:13:40,72.2892,0
2013-08-28 0:13:41,65.2174,0
2013-08-28 0:13:42,60.6061,0
2013-08-28 0:13:43,64.5161,0
2013-08-28 0:13:44,62.5,0
2013-08-28 0:13:45,63.8298,0
2013-08-28 0:13:46,66.6667,0
2013-08-28 0:13:46,66.6667,0
2013-08-28 0:13:47,62.5,0
2013-08-28 0:13:48,61.8557,0
2013-08-28 0:13:49,65.2174,0
2013-08-28 0:13:50,61.2245,0
2013-08-28 0:13:51,62.5,0
2013-08-28 0:13:52,61.8557,0
2013-08-28 0:13:53,60,0
2013-08-28 0:13:54,57.6923,0
2013-08-28 0:13:55,63.1579,0
2013-08-28 0:13:56,61.8557,0
2013-08-28 0:13:57,56.0748,0
2013-08-28 0:14:0,68.1818,1
2013-08-28 0:14:3,74.0741,1
2013-08-28 0:14:3,73.1707,0
2013-08-28 0:14:4,67.4157,0
2013-08-28 0:14:5,70.5882,0
2013-08-28 0:14:6,70.5882,0
2013-08-28 0:14:7,69.7674,0
2013-08-28 0:14:8,67.4157,0
2013-08-28 0:14:9,66.6667,0
2013-08-28 0:14:10,66.6667,0
2013-08-28 0:14:10,68.1818,0
2013-08-28 0:14:11,63.1579,0
2013-08-28 0:14:12,63.8298,0
2013-08-28 0:14:13,68.1818,0
2013-08-28 0:14:14,65.9341,0
2013-08-28 0:14:15,65.2174,0
2013-08-28 0:14:16,63.8298,0
2013-08-28 0:14:17,67.4157,0
2013-08-28 0:14:18,66.6667,0
2013-08-28 0:14:19,61.8557,0
2013-08-28 0:14:20,65.9341,0
2013-08-28 0:14:21,66.6667,0
2013-08-28 0:14:21,60,0
2013-08-28 0:14:22,59.4059,0
2013-08-28 0:14:23,63.8298,0
2013-08-28 0:14:24,65.2174,0
2013-08-28 0:14:26,56.6038,1
2013-08-28 0:14:30,75,1
2013-08-28 0:14:31,68.1818,0
2013-08-28 0:14:32,74.0741,0
2013-08-28 0:14:32,75.9494,0
2013-08-28 0:14:35,83.3333,1
2013-08-28 0:14:36,81.0811,0
2013-08-28 0:14:37,78.9474,0
2013-08-28 0:14:38,70.5882,0
2013-08-28 0:14:38,64.5161,0
2013-08-28 0:14:39,67.4157,0
2013-08-28 0:14:40,63.8298,0
2013-08-28 0:14:42,64.5161,1
2013-08-28 0:14:43,65.9341,0
2013-08-28 0:14:44,60.6061,0
2013-08-28 0:14:45,64.5161,0
2013-08-28 0:14:46,66.6667,0
2013-08-28 0:14:47,65.9341,0
2013-08-28 0:14:48,65.2174,0
2013-08-28 0:14:49,68.1818,0
2013-08-28 0:14:50,68.9655,0
2013-08-28 0:14:50,67.4157,0
2013-08-28 0:14:51,69.7674,0
2013-08-28 0:14:52,68.1818,0
2013-08-28 0:14:53,65.9341,0
2013-08-28 0:14:54,68.1818,0
2013-08-28 0:14:55,69.7674,0
2013-08-28 0:14:56,60.6061,0
2013-08-28 0:14:57,61.2245,0
2013-08-28 0:14:58,65.2174,0
2013-08-28 0:14:59,63.8298,0
2013-08-28 0:15:0,59.4059,0
2013-08-28 0:15:1,61.2245,0
2013-08-28 0:15:2,62.5,0
2013-08-28 0:15:3,55.0459,0
2013-08-28 0:15:4,63.8298,0
2013-08-28 0:15:5,75,1
2013-08-28 0:15:7,58.8235,1
2013-08-28 0:15:9,74.0741,1
2013-08-28 0:15:10,75,0
2013-08-28 0:15:11,74.0741,0
2013-08-28 0:15:11,74.0741,0
2013-08-28 0:15:12,73.1707,0
2013-08-28 0:15:13,66.6667,0
2013-08-28 0:15:14,66.6667,0
2013-08-28 0:15:15,65.9341,0
2013-08-28 0:15:16,63.1579,0
2013-08-28 0:15:17,59.4059,0
2013-08-28 0:15:18,65.9341,0
2013-08-28 0:15:19,65.9341,0
2013-08-28 0:15:20,60,0
2013-08-28 0:15:21,61.2245,0
2013-08-28 0:15:21,63.1579,0
2013-08-28 0:15:22,55.0459,0
2013-08-28 0:15:24,56.0748,0
2013-08-28 0:15:25,55.0459,0
2013-08-28 0:15:27,73.1707,1
2013-08-28 0:15:29,68.9655,1
2013-08-28 0:15:30,75,0
2013-08-28 0:15:31,74.0741,0
2013-08-28 0:15:32,70.5882,0
2013-08-28 0:15:32,68.9655,0
2013-08-28 0:15:33,68.1818,0
2013-08-28 0:15:34,68.9655,0
2013-08-28 0:15:35,65.9341,0
2013-08-28 0:15:36,65.2174,0
2013-08-28 0:15:37,66.6667,0
2013-08-28 0:15:38,63.1579,0
2013-08-28 0:15:40,58.2524,1
2013-08-28 0:15:41,62.5,0
2013-08-28 0:15:42,65.2174,0
2013-08-28 0:15:43,57.6923,0
2013-08-28 0:15:44,58.8235,0
2013-08-28 0:15:45,64.5161,0
2013-08-28 0:15:46,66.6667,0
2013-08-28 0:15:47,66.6667,0
2013-08-28 0:15:48,66.6667,0
2013-08-28 0:15:49,65.2174,0
2013-08-28 0:15:49,60.6061,0
2013-08-28 0:15:50,61.2245,0
2013-08-28 0:15:51,63.1579,0
2013-08-28 0:15:52,61.2245,0
2013-08-28 0:15:53,57.6923,0
2013-08-28 0:15:54,63.8298,0
2013-08-28 0:15:55,65.9341,0
2013-08-28 0:15:57,60,1
2013-08-28 0:16:0,72.2892,1
2013-08-28 0:16:3,73.1707,1
2013-08-28 0:16:3,70.5882,0
2013-08-28 0:16:4,68.1818,0
2013-08-28 0:16:5,71.4286,0
2013-08-28 0:16:6,72.2892,0
2013-08-28 0:16:7,68.9655,0
2013-08-28 0:16:8,68.9655,0
2013-08-28 0:16:9,69.7674,0
2013-08-28 0:16:9,67.4157,0
2013-08-28 0:16:10,63.8298,0
2013-08-28 0:16:11,61.8557,0
2013-08-28 0:16:12,65.2174,0
2013-08-28 0:16:13,65.9341,0
2013-08-28 0:16:14,68.9655,0
2013-08-28 0:16:15,65.2174,0
2013-08-28 0:16:16,61.2245,0
2013-08-28 0:16:17,63.8298,0
2013-08-28 0:16:18,68.1818,0
2013-08-28 0:16:19,66.6667,0
2013-08-28 0:16:20,63.8298,0
2013-08-28 0:16:20,65.2174,0
2013-08-28 0:16:21,68.9655,0
2013-08-28 0:16:22,67.4157,0
2013-08-28 0:16:23,66.6667,0
2013-08-28 0:16:24,70.5882,0
2013-08-28 0:16:25,67.4157,0
2013-08-28 0:16:27,58.8235,1
2013-08-28 0:16:32,83.3333,1
2013-08-28 0:16:33,78.9474,0
2013-08-28 0:16:34,75.9494,0
2013-08-28 0:16:35,74.0741,0
2013-08-28 0:16:36,68.9655,0
2013-08-28 0:16:37,68.1818,1
2013-08-28 0:16:38,65.9341,0
2013-08-28 0:16:39,62.5,0
2013-08-28 0:16:40,64.5161,0
2013-08-28 0:16:41,63.8298,0
2013-08-28 0:16:42,61.8557,0
2013-08-28 0:16:43,65.2174,0
2013-08-28 0:16:44,67.4157,0
2013-08-28 0:16:45,65.2174,0
2013-08-28 0:16:46,65.2174,0
2013-08-28 0:16:47,68.9655,0
2013-08-28 0:16:47,68.9655,0
2013-08-28 0:16:48,67.4157,0
2013-08-28 0:16:49,67.4157,0
2013-08-28 0:16:50,68.1818,0
2013-08-28 0:16:51,65.2174,0
2013-08-28 0:16:52,65.2174,0
2013-08-28 0:16:53,65.2174,0
2013-08-28 0:16:54,65.9341,0
2013-08-28 0:16:55,60.6061,0
2013-08-28 0:16:56,60,0
2013-08-28 0:16:57,58.8235,0
2013-08-28 0:16:58,55.5556,0
2013-08-28 0:16:59,55.0459,0
2013-08-28 0:17:0,58.2524,0
2013-08-28 0:17:1,63.8298,0
2013-08-28 0:17:2,56.6038,0
2013-08-28 0:17:3,57.6923,0
2013-08-28 0:17:4,63.8298,0
2013-08-28 0:17:8,69.7674,1
2013-08-28 0:17:9,74.0741,0
2013-08-28 0:17:10,74.0741,0
2013-08-28 0:17:11,70.5882,0
2013-08-28 0:17:11,65.9341,0
2013-08-28 0:17:12,69.7674,0
2013-08-28 0:17:13,70.5882,0
2013-08-28 0:17:14,68.9655,0
2013-08-28 0:17:15,69.7674,0
2013-08-28 0:17:16,63.1579,0
2013-08-28 0:17:17,59.4059,0
2013-08-28 0:17:18,65.2174,0
2013-08-28 0:17:19,67.4157,0
2013-08-28 0:17:20,64.5161,0
2013-08-28 0:17:20,65.9341,0
2013-08-28 0:17:21,66.6667,0
2013-08-28 0:17:22,64.5161,0
2013-08-28 0:17:23,63.1579,0
2013-08-28 0:17:24,66.6667,0
2013-08-28 0:17:25,67.4157,0
2013-08-28 0:17:26,63.1579,0
2013-08-28 0:17:27,63.1579,0
2013-08-28 0:17:28,68.1818,0
2013-08-28 0:17:29,64.5161,0
2013-08-28 0:17:30,62.5,0
2013-08-28 0:17:31,63.8298,0
2013-08-28 0:17:32,63.8298,0
2013-08-28 0:17:32,60.6061,0
2013-08-28 0:17:33,60,0
2013-08-28 0:17:34,60,0
2013-08-28 0:17:35,67.4157,0
2013-08-28 0:17:36,75,0
2013-08-28 0:17:37,71.4286,0
2013-08-28 0:17:39,63.8298,1
2013-08-28 0:17:40,67.4157,0
2013-08-28 0:17:41,63.8298,0
2013-08-28 0:17:42,65.2174,0
2013-08-28 0:17:43,69.7674,0
2013-08-28 0:17:44,65.2174,0
2013-08-28 0:17:44,63.1579,0
2013-08-28 0:17:45,67.4157,0
2013-08-28 0:17:46,62.5,0
2013-08-28 0:17:47,55.5556,0
2013-08-28 0:17:48,59.4059,0
2013-08-28 0:17:49,60.6061,0
2013-08-28 0:17:50,61.8557,0
2013-08-28 0:17:51,57.6923,0
2013-08-28 0:17:52,61.8557,0
2013-08-28 0:17:53,67.4157,0
2013-08-28 0:17:54,63.1579,0
2013-08-28 0:17:55,65.9341,0
2013-08-28 0:17:56,67.4157,0
2013-08-28 0:17:57,65.2174,0
2013-08-28 0:17:58,64.5161,0
2013-08-28 0:17:59,68.9655,0
2013-08-28 0:18:0,69.7674,0
2013-08-28 0:18:2,62.5,1
2013-08-28 0:18:3,71.4286,0
2013-08-28 0:18:5,76.9231,1
2013-08-28 0:18:6,78.9474,0
2013-08-28 0:18:8,83.3333,1
2013-08-28 0:18:9,77.9221,0
2013-08-28 0:18:9,76.9231,0
2013-08-28 0:18:10,75.9494,0
2013-08-28 0:18:11,70.5882,0
2013-08-28 0:18:12,63.8298,0
2013-08-28 0:18:13,65.2174,0
2013-08-28 0:18:14,67.4157,0
2013-08-28 0:18:15,67.4157,0
2013-08-28 0:18:15,62.5,0
2013-08-28 0:18:16,63.8298,0
2013-08-28 0:18:17,64.5161,0
2013-08-28 0:18:18,67.4157,0
2013-08-28 0:18:19,65.2174,0
2013-08-28 0:18:20,67.4157,0
2013-08-28 0:18:21,64.5161,0
2013-08-28 0:18:22,64.5161,0
2013-08-28 0:18:23,68.1818,0
2013-08-28 0:18:24,66.6667,0
2013-08-28 0:18:25,63.8298,0
2013-08-28 0:18:26,65.9341,0
2013-08-28 0:18:26,68.9655,0
2013-08-28 0:18:27,68.1818,0
2013-08-28 0:18:28,65.9341,0
2013-08-28 0:18:29,66.6667,0
2013-08-28 0:18:30,61.8557,0
2013-08-28 0:18:31,56.6038,0
2013-08-28 0:18:32,65.9341,0
2013-08-28 0:18:33,69.7674,0
2013-08-28 0:18:34,69.7674,0
2013-08-28 0:18:35,65.2174,0
2013-08-28 0:18:36,64.5161,0
2013-08-28 0:18:37,68.1818,0
2013-08-28 0:18:37,69.7674,0
2013-08-28 0:18:38,65.2174,0
2013-08-28 0:18:39,65.2174,0
2013-08-28 0:18:40,65.9341,0
2013-08-28 0:18:41,68.9655,0
2013-08-28 0:18:43,61.2245,1
2013-08-28 0:18:46,69.7674,1
2013-08-28 0:18:47,73.1707,0
2013-08-28 0:18:48,77.9221,0
2013-08-28 0:18:49,80,0
2013-08-28 0:18:49,78.9474,0
2013-08-28 0:18:50,75,0
2013-08-28 0:18:51,75,0
2013-08-28 0:18:52,74.0741,0
2013-08-28 0:18:54,63.8298,1
2013-08-28 0:18:55,63.8298,0
2013-08-28 0:18:57,57.6923,1
2013-08-28 0:18:58,60,0
2013-08-28 0:18:59,56.6038,0
2013-08-28 0:19:0,58.8235,0
2013-08-28 0:19:1,65.2174,0
2013-08-28 0:19:2,65.9341,0
2013-08-28 0:19:2,61.8557,0
2013-08-28 0:19:3,61.8557,0
2013-08-28 0:19:4,65.2174,0
2013-08-28 0:19:5,68.1818,0
2013-08-28 0:19:6,61.8557,0
2013-08-28 0:19:7,60,0
2013-08-28 0:19:8,65.9341,0
2013-08-28 0:19:9,63.8298,0
2013-08-28 0:19:10,57.6923,0
2013-08-28 0:19:11,60.6061,0
2013-08-28 0:19:12,65.2174,0
2013-08-28 0:19:13,63.1579,0
2013-08-28 0:19:14,59.4059,0
2013-08-28 0:19:15,62.5,0
2013-08-28 0:19:16,61.8557,0
2013-08-28 0:19:17,55.0459,0
2013-08-28 0:19:18,60.6061,0
2013-08-28 0:19:19,63.8298,0
2013-08-28 0:19:20,57.6923,0
2013-08-28 0:19:21,62.5,0
2013-08-28 0:19:22,65.9341,0
2013-08-28 0:19:25,71.4286,1
2013-08-28 0:19:26,73.1707,0
2013-08-28 0:19:27,73.1707,0
2013-08-28 0:19:28,68.9655,0
2013-08-28 0:19:28,63.8298,0
2013-08-28 0:19:29,69.7674,0
2013-08-28 0:19:30,73.1707,0
2013-08-28 0:19:31,68.1818,0
2013-08-28 0:19:32,65.2174,0
2013-08-28 0:19:33,68.1818,0
2013-08-28 0:19:34,66.6667,0
2013-08-28 0:19:35,61.2245,0
2013-08-28 0:19:36,63.1579,0
2013-08-28 0:19:37,63.1579,0
2013-08-28 0:19:38,58.8235,0
2013-08-28 0:19:39,58.2524,0
2013-08-28 0:19:40,65.2174,0
2013-08-28 0:19:41,63.8298,0
2013-08-28 0:19:41,61.2245,0
2013-08-28 0:19:42,61.2245,0
2013-08-28 0:19:43,65.9341,0
2013-08-28 0:19:44,69.7674,0
2013-08-28 0:19:45,66.6667,0
2013-08-28 0:19:46,63.1579,0
2013-08-28 0:19:47,68.1818,0
2013-08-28 0:19:48,68.9655,0
2013-08-28 0:19:49,65.2174,0
2013-08-28 0:19:50,65.9341,0
2013-08-28 0:19:51,68.9655,0
2013-08-28 0:19:54,58.2524,1
2013-08-28 0:19:55,66.6667,0
2013-08-28 0:19:56,74.0741,0
2013-08-28 0:19:56,71.4286,0
2013-08-28 0:19:57,68.9655,0
2013-08-28 0:19:58,73.1707,0
2013-08-28 0:20:0,73.1707,1
2013-08-28 0:20:1,68.1818,0
2013-08-28 0:20:1,66.6667,0
2013-08-28 0:20:2,70.5882,0
2013-08-28 0:20:3,68.9655,0
2013-08-28 0:20:4,63.8298,0
2013-08-28 0:20:5,65.2174,0
2013-08-28 0:20:6,68.1818,0
2013-08-28 0:20:7,64.5161,0
2013-08-28 0:20:8,64.5161,0
2013-08-28 0:20:9,65.9341,0
2013-08-28 0:20:10,63.1579,0
2013-08-28 0:20:10,61.2245,0
2013-08-28 0:20:11,58.2524,0
2013-08-28 0:20:12,60,0
2013-08-28 0:20:13,59.4059,0
2013-08-28 0:20:14,56.6038,0
2013-08-28 0:20:16,58.8235,0
2013-08-28 0:20:17,63.1579,0
2013-08-28 0:20:18,61.2245,0
2013-08-28 0:20:18,58.2524,0
2013-08-28 0:20:20,54.5455,0
2013-08-28 0:20:21,63.1579,0
2013-08-28 0:20:22,72.2892,0
2013-08-28 0:20:22,71.4286,0
2013-08-28 0:20:23,62.5,0
2013-08-28 0:20:24,60.6061,0
2013-08-28 0:20:25,66.6667,0
2013-08-28 0:20:26,67.4157,0
2013-08-28 0:20:27,60,0
2013-08-28 0:20:28,63.8298,0
2013-08-28 0:20:29,68.9655,0
2013-08-28 0:20:30,64.5161,0
2013-08-28 0:20:31,61.8557,0
2013-08-28 0:20:32,66.6667,0
2013-08-28 0:20:33,65.2174,0
2013-08-28 0:20:34,63.1579,0
2013-08-28 0:20:34,66.6667,0
2013-08-28 0:20:35,68.1818,0
2013-08-28 0:20:36,64.5161,0
2013-08-28 0:20:37,61.8557,0
2013-08-28 0:20:38,61.8557,0
2013-08-28 0:20:39,65.9341,0
2013-08-28 0:20:40,61.2245,0
2013-08-28 0:20:41,60,0
2013-08-28 0:20:42,64.5161,0
2013-08-28 0:20:43,68.1818,0
2013-08-28 0:20:44,58.8235,0
2013-08-28 0:20:45,63.1579,0
2013-08-28 0:20:46,71.4286,0
2013-08-28 0:20:47,74.0741,1
2013-08-28 0:20:48,74.0741,0
2013-08-28 0:20:49,77.9221,0
2013-08-28 0:20:50,75.9494,0
2013-08-28 0:20:51,73.1707,0
2013-08-28 0:20:51,67.4157,0
2013-08-28 0:20:52,70.5882,0
2013-08-28 0:20:53,72.2892,0
2013-08-28 0:20:54,72.2892,0
2013-08-28 0:20:55,66.6667,0
2013-08-28 0:20:56,66.6667,0
2013-08-28 0:20:57,68.9655,0
2013-08-28 0:20:57,64.5161,0
2013-08-28 0:20:58,61.2245,0
2013-08-28 0:20:59,66.6667,0
2013-08-28 0:21:0,63.8298,0
2013-08-28 0:21:1,60,0
2013-08-28 0:21:2,58.2524,0
2013-08-28 0:21:3,63.1579,0
2013-08-28 0:21:4,60.6061,0
2013-08-28 0:21:5,58.2524,0
2013-08-28 0:21:6,61.8557,0
2013-08-28 0:21:7,68.1818,0
2013-08-28 0:21:8,67.4157,0
2013-08-28 0:21:9,61.8557,0
2013-08-28 0:21:10,63.8298,0
2013-08-28 0:21:11,64.5161,0
2013-08-28 0:21:12,65.2174,0
2013-08-28 0:21:13,57.1429,0
2013-08-28 0:21:14,61.2245,0
2013-08-28 0:21:15,65.2174,0
2013-08-28 0:21:16,63.8298,0
2013-08-28 0:21:17,58.8235,0
2013-08-28 0:21:18,65.9341,0
2013-08-28 0:21:19,68.1818,0
2013-08-28 0:21:19,63.8298,0
2013-08-28 0:21:20,57.1429,0
2013-08-28 0:21:21,62.5,0
2013-08-28 0:21:22,65.9341,0
2013-08-28 0:21:24,57.6923,1
2013-08-28 0:21:28,75.9494,1
2013-08-28 0:21:29,72.2892,0
2013-08-28 0:21:31,80,1
2013-08-28 0:21:32,74.0741,0
2013-08-28 0:21:32,75.9494,0
2013-08-28 0:21:33,74.0741,0
2013-08-28 0:21:34,69.7674,0
2013-08-28 0:21:35,68.9655,0
2013-08-28 0:21:36,73.1707,0
2013-08-28 0:21:37,72.2892,0
2013-08-28 0:21:37,68.9655,0
2013-08-28 0:21:38,65.2174,0
2013-08-28 0:21:39,68.9655,0
2013-08-28 0:21:40,65.9341,0
2013-08-28 0:21:41,61.8557,0
2013-08-28 0:21:42,62.5,0
2013-08-28 0:21:43,62.5,0
2013-08-28 0:21:44,65.2174,0
2013-08-28 0:21:45,68.1818,0
2013-08-28 0:21:46,65.2174,0
2013-08-28 0:21:47,63.1579,0
2013-08-28 0:21:48,64.5161,0
2013-08-28 0:21:48,68.1818,0
2013-08-28 0:21:49,65.2174,0
2013-08-28 0:21:50,65.9341,0
2013-08-28 0:21:51,68.9655,0
2013-08-28 0:21:52,72.2892,0
2013-08-28 0:21:53,65.9341,0
2013-08-28 0:21:54,60,0
2013-08-28 0:21:55,63.1579,0
2013-08-28 0:21:56,63.1579,0
2013-08-28 0:21:57,55.0459,0
2013-08-28 0:21:58,59.4059,0
2013-08-28 0:21:59,65.2174,0
2013-08-28 0:22:0,72.2892,0
2013-08-28 0:22:1,75.9494,0
2013-08-28 0:22:1,70.5882,0
2013-08-28 0:22:4,69.7674,1
2013-08-28 0:22:5,75,0
2013-08-28 0:22:6,71.4286,0
2013-08-28 0:22:8,55.5556,1
2013-08-28 0:22:9,61.8557,0
2013-08-28 0:22:10,57.6923,0
2013-08-28 0:22:11,55.5556,0
2013-08-28 0:22:12,58.2524,0
2013-08-28 0:22:13,60.6061,0
2013-08-28 0:22:14,55.0459,0
2013-08-28 0:22:15,58.2524,0
2013-08-28 0:22:16,63.1579,0
2013-08-28 0:22:17,64.5161,0
2013-08-28 0:22:18,63.8298,0
2013-08-28 0:22:19,65.9341,0
2013-08-28 0:22:20,68.1818,0
2013-08-28 0:22:21,58.8235,0
2013-08-28 0:22:22,61.2245,0
2013-08-28 0:22:23,64.5161,0
2013-08-28 0:22:24,62.5,0
2013-08-28 0:22:25,61.8557,0
2013-08-28 0:22:26,60.6061,0
2013-08-28 0:22:27,64.5161,0
2013-08-28 0:22:28,65.9341,0
2013-08-28 0:22:28,61.2245,0
2013-08-28 0:22:29,66.6667,0
2013-08-28 0:22:32,71.4286,1
2013-08-28 0:22:33,65.9341,0
2013-08-28 0:22:34,74.0741,0
2013-08-28 0:22:34,77.9221,0
2013-08-28 0:22:35,76.9231,0
2013-08-28 0:22:36,71.4286,0
2013-08-28 0:22:37,72.2892,0
2013-08-28 0:22:38,72.2892,0
2013-08-28 0:22:39,65.2174,0
2013-08-28 0:22:39,63.1579,0
2013-08-28 0:22:40,68.1818,0
2013-08-28 0:22:41,65.9341,0
2013-08-28 0:22:42,61.2245,0
2013-08-28 0:22:43,64.5161,0
2013-08-28 0:22:44,68.1818,0
2013-08-28 0:22:45,65.2174,0
2013-08-28 0:22:46,58.8235,0
2013-08-28 0:22:47,60.6061,0
2013-08-28 0:22:48,63.8298,0
2013-08-28 0:22:49,65.2174,0
2013-08-28 0:22:50,60.6061,0
2013-08-28 0:22:51,62.5,0
2013-08-28 0:22:52,67.4157,0
2013-08-28 0:22:53,68.9655,0
2013-08-28 0:22:53,65.2174,0
2013-08-28 0:22:54,59.4059,0
2013-08-28 0:22:55,63.8298,0
2013-08-28 0:22:56,65.9341,0
2013-08-28 0:22:58,59.4059,1
2013-08-28 0:22:59,62.5,0
2013-08-28 0:23:0,59.4059,0
2013-08-28 0:23:1,58.2524,0
2013-08-28 0:23:2,61.2245,0
2013-08-28 0:23:3,63.1579,0
2013-08-28 0:23:4,57.1429,0
2013-08-28 0:23:5,61.2245,0
2013-08-28 0:23:6,59.4059,0
2013-08-28 0:23:7,59.4059,0
2013-08-28 0:23:10,74.0741,1
2013-08-28 0:23:12,73.1707,1
2013-08-28 0:23:13,75.9494,0
2013-08-28 0:23:13,74.0741,0
2013-08-28 0:23:14,74.0741,0
2013-08-28 0:23:15,75,0
2013-08-28 0:23:16,74.0741,0
2013-08-28 0:23:17,68.1818,0
2013-08-28 0:23:17,68.9655,0
2013-08-28 0:23:18,68.1818,0
2013-08-28 0:23:19,62.5,0
2013-08-28 0:23:20,58.2524,0
2013-08-28 0:23:21,60.6061,0
2013-08-28 0:23:22,61.2245,0
2013-08-28 0:23:23,58.8235,0
2013-08-28 0:23:24,62.5,0
2013-08-28 0:23:25,61.8557,0
2013-08-28 0:23:26,60.6061,0
2013-08-28 0:23:27,66.6667,0
2013-08-28 0:23:28,68.1818,0
2013-08-28 0:23:29,63.8298,0
2013-08-28 0:23:30,66.6667,0
2013-08-28 0:23:31,68.1818,0
2013-08-28 0:23:32,62.5,0
2013-08-28 0:23:33,56.6038,0
2013-08-28 0:23:34,63.1579,0
2013-08-28 0:23:35,65.2174,0
2013-08-28 0:23:35,58.8235,0
2013-08-28 0:23:36,55.0459,0
2013-08-28 0:23:38,60.6061,0
2013-08-28 0:23:39,63.8298,0
2013-08-28 0:23:39,56.0748,0
2013-08-28 0:23:41,59.4059,0
2013-08-28 0:23:42,63.8298,0
2013-08-28 0:23:43,59.4059,0
2013-08-28 0:23:44,60.6061,0
2013-08-28 0:23:45,63.8298,0
2013-08-28 0:23:45,60.6061,0
2013-08-28 0:23:46,60,0
2013-08-28 0:23:47,55.5556,0
2013-08-28 0:23:50,68.1818,1
2013-08-28 0:23:51,71.4286,0
2013-08-28 0:23:53,75.9494,1
2013-08-28 0:23:54,75.9494,0
2013-08-28 0:23:55,75.9494,0
2013-08-28 0:23:57,63.1579,1
2013-08-28 0:23:58,70.5882,0
2013-08-28 0:23:59,75,0
2013-08-28 0:23:59,75,0
2013-08-28 0:24:0,72.2892,0
2013-08-28 0:24:1,67.4157,0
2013-08-28 0:24:2,71.4286,0
2013-08-28 0:24:3,73.1707,0
2013-08-28 0:24:4,67.4157,0
2013-08-28 0:24:4,66.6667,0
2013-08-28 0:24:5,68.1818,0
2013-08-28 0:24:6,69.7674,0
2013-08-28 0:24:7,67.4157,0
2013-08-28 0:24:8,63.8298,0
2013-08-28 0:24:9,63.8298,0
2013-08-28 0:24:10,66.6667,0
2013-08-28 0:24:11,65.2174,0
2013-08-28 0:24:12,61.2245,0
2013-08-28 0:24:13,64.5161,0
2013-08-28 0:24:14,68.1818,0
2013-08-28 0:24:14,64.5161,0
2013-08-28 0:24:15,63.1579,0
2013-08-28 0:24:16,67.4157,0
2013-08-28 0:24:17,68.1818,0
2013-08-28 0:24:18,60.6061,0
2013-08-28 0:24:19,59.4059,0
2013-08-28 0:24:20,62.5,0
2013-08-28 0:24:21,66.6667,0
2013-08-28 0:24:22,61.8557,0
2013-08-28 0:24:23,55.5556,0
2013-08-28 0:24:24,59.4059,0
2013-08-28 0:24:25,63.8298,0
2013-08-28 0:24:26,56.6038,0
2013-08-28 0:24:27,57.1429,0
2013-08-28 0:24:28,60.6061,0
2013-08-28 0:24:29,60,0
2013-08-28 0:24:30,56.6038,0
2013-08-28 0:24:31,59.4059,0
2013-08-28 0:24:32,65.2174,0
2013-08-28 0:24:33,60.6061,0
2013-08-28 0:24:34,63.1579,0
2013-08-28 0:24:35,63.8298,0
2013-08-28 0:24:38,68.9655,1
2013-08-28 0:24:38,70.5882,0
2013-08-28 0:24:39,75.9494,0
2013-08-28 0:24:40,73.1707,0
2013-08-28 0:24:41,70.5882,0
2013-08-28 0:24:42,74.0741,0
2013-08-28 0:24:43,75,0
2013-08-28 0:24:43,75.9494,0
2013-08-28 0:24:44,73.1707,0
2013-08-28 0:24:45,73.1707,0
2013-08-28 0:24:46,71.4286,0
2013-08-28 0:24:47,63.1579,0
2013-08-28 0:24:49,63.8298,1
2013-08-28 0:24:50,57.1429,0
2013-08-28 0:24:51,57.6923,0
2013-08-28 0:24:52,60,0
2013-08-28 0:24:54,57.1429,1
2013-08-28 0:24:55,63.1579,0
2013-08-28 0:24:56,61.2245,0
2013-08-28 0:24:57,58.8235,0
2013-08-28 0:24:58,62.5,0
2013-08-28 0:24:59,67.4157,0
2013-08-28 0:25:0,66.6667,0
2013-08-28 0:25:0,65.2174,0
2013-08-28 0:25:1,68.9655,0
2013-08-28 0:25:2,68.9655,0
2013-08-28 0:25:3,60,0
2013-08-28 0:25:4,63.8298,0
2013-08-28 0:25:5,65.2174,0
2013-08-28 0:25:6,60.6061,0
2013-08-28 0:25:7,58.2524,0
2013-08-28 0:25:8,60,0
2013-08-28 0:25:9,61.2245,0
2013-08-28 0:25:10,53.5714,0
2013-08-28 0:25:11,58.8235,0
2013-08-28 0:25:12,63.1579,0
2013-08-28 0:25:13,61.2245,0
2013-08-28 0:25:14,62.5,0
2013-08-28 0:25:15,61.8557,0
2013-08-28 0:25:16,67.4157,0
2013-08-28 0:25:17,70.5882,0
2013-08-28 0:25:19,71.4286,1
2013-08-28 0:25:21,70.5882,1
2013-08-28 0:25:22,75.9494,0
2013-08-28 0:25:23,75,0
2013-08-28 0:25:24,71.4286,0
2013-08-28 0:25:24,75,0
2013-08-28 0:25:25,75,0
2013-08-28 0:25:26,66.6667,0
2013-08-28 0:25:27,60,0
2013-08-28 0:25:28,64.5161,0
2013-08-28 0:25:29,63.1579,0
2013-08-28 0:25:31,57.6923,1
2013-08-28 0:25:32,63.1579,0
2013-08-28 0:25:33,62.5,0
2013-08-28 0:25:34,56.6038,0
2013-08-28 0:25:35,60.6061,0
2013-08-28 0:25:36,62.5,0
2013-08-28 0:25:37,58.8235,0
2013-08-28 0:25:38,60.6061,0
2013-08-28 0:25:39,62.5,0
2013-08-28 0:25:40,62.5,0
2013-08-28 0:25:41,58.8235,0
2013-08-28 0:25:42,63.1579,0
2013-08-28 0:25:43,67.4157,0
2013-08-28 0:25:44,68.9655,0
2013-08-28 0:25:44,65.9341,0
2013-08-28 0:25:45,61.8557,0
2013-08-28 0:25:46,66.6667,0
2013-08-28 0:25:47,69.7674,0
2013-08-28 0:25:48,65.2174,0
2013-08-28 0:25:49,61.8557,0
2013-08-28 0:25:50,63.1579,0
2013-08-28 0:25:51,62.5,0
2013-08-28 0:25:52,53.5714,0
2013-08-28 0:25:53,56.6038,0
2013-08-28 0:25:54,62.5,0
2013-08-28 0:25:55,57.1429,0
2013-08-28 0:25:56,56.0748,0
2013-08-28 0:25:57,61.2245,0
2013-08-28 0:25:59,58.8235,1
2013-08-28 0:26:4,71.4286,1
2013-08-28 0:26:5,75.9494,0
2013-08-28 0:26:5,74.0741,0
2013-08-28 0:26:6,68.9655,0
2013-08-28 0:26:7,72.2892,0
2013-08-28 0:26:8,73.1707,0
2013-08-28 0:26:9,71.4286,0
2013-08-28 0:26:9,66.6667,0
2013-08-28 0:26:10,69.7674,0
2013-08-28 0:26:11,69.7674,0
2013-08-28 0:26:12,62.5,0
2013-08-28 0:26:13,57.1429,0
2013-08-28 0:26:14,62.5,0
2013-08-28 0:26:15,62.5,0
2013-08-28 0:26:16,60,0
2013-08-28 0:26:17,63.8298,0
2013-08-28 0:26:18,58.8235,0
2013-08-28 0:26:19,57.6923,0
2013-08-28 0:26:20,57.1429,0
2013-08-28 0:26:21,61.2245,0
2013-08-28 0:26:22,65.9341,0
2013-08-28 0:26:23,65.2174,0
2013-08-28 0:26:24,63.1579,0
2013-08-28 0:26:25,67.4157,0
2013-08-28 0:26:26,67.4157,0
2013-08-28 0:26:27,67.4157,0
2013-08-28 0:26:28,59.4059,0
2013-08-28 0:26:29,63.1579,0
2013-08-28 0:26:29,65.2174,0
2013-08-28 0:26:30,68.1818,0
2013-08-28 0:26:31,61.2245,0
2013-08-28 0:26:32,59.4059,0
2013-08-28 0:26:33,65.9341,0
2013-08-28 0:26:34,65.2174,0
2013-08-28 0:26:36,58.8235,1
2013-08-28 0:26:37,62.5,0
2013-08-28 0:26:38,56.0748,0
2013-08-28 0:26:39,57.6923,0
2013-08-28 0:26:40,63.8298,0
2013-08-28 0:26:41,64.5161,0
2013-08-28 0:26:42,63.1579,0
2013-08-28 0:26:43,69.7674,0
2013-08-28 0:26:45,74.0741,1
2013-08-28 0:26:46,66.6667,0
2013-08-28 0:26:46,74.0741,0
2013-08-28 0:26:47,71.4286,0
2013-08-28 0:26:48,66.6667,0
2013-08-28 0:26:49,71.4286,0
2013-08-28 0:26:50,75,0
2013-08-28 0:26:51,74.0741,0
2013-08-28 0:26:51,66.6667,0
2013-08-28 0:26:52,67.4157,0
2013-08-28 0:26:53,67.4157,0
2013-08-28 0:26:54,61.8557,0
2013-08-28 0:26:55,63.1579,0
2013-08-28 0:26:56,63.1579,0
2013-08-28 0:26:57,58.2524,0
2013-08-28 0:26:58,57.6923,0
2013-08-28 0:26:59,60,0
2013-08-28 0:27:0,54.0541,0
2013-08-28 0:27:1,55.5556,0
2013-08-28 0:27:2,58.2524,0
2013-08-28 0:27:3,54.5455,0
2013-08-28 0:27:4,55.5556,0
2013-08-28 0:27:5,59.4059,0
2013-08-28 0:27:7,59.4059,0
2013-08-28 0:27:8,55.5556,0
2013-08-28 0:27:9,60.6061,0
2013-08-28 0:27:10,64.5161,0
2013-08-28 0:27:11,69.7674,0
2013-08-28 0:27:11,65.9341,0
2013-08-28 0:27:12,61.8557,0
2013-08-28 0:27:13,65.2174,0
2013-08-28 0:27:14,66.6667,0
2013-08-28 0:27:15,60.6061,0
2013-08-28 0:27:16,57.6923,0
2013-08-28 0:27:17,63.8298,0
2013-08-28 0:27:18,64.5161,0
2013-08-28 0:27:19,61.2245,0
2013-08-28 0:27:20,62.5,0
2013-08-28 0:27:21,64.5161,0
2013-08-28 0:27:22,58.8235,0
2013-08-28 0:27:23,56.0748,0
2013-08-28 0:27:24,63.8298,0
2013-08-28 0:27:25,55.0459,0
2013-08-28 0:27:28,73.1707,1
2013-08-28 0:27:31,74.0741,1
2013-08-28 0:27:32,71.4286,0
2013-08-28 0:27:33,74.0741,0
2013-08-28 0:27:34,75.9494,0
2013-08-28 0:27:34,71.4286,0
2013-08-28 0:27:35,63.1579,0
2013-08-28 0:27:36,68.9655,0
2013-08-28 0:27:37,65.2174,0
2013-08-28 0:27:39,60.6061,1
2013-08-28 0:27:40,60,0
2013-08-28 0:27:41,57.6923,0
2013-08-28 0:27:42,61.8557,0
2013-08-28 0:27:43,63.8298,0
2013-08-28 0:27:44,60,0
2013-08-28 0:27:45,59.4059,0
2013-08-28 0:27:46,63.1579,0
2013-08-28 0:27:47,64.5161,0
2013-08-28 0:27:48,64.5161,0
2013-08-28 0:27:49,55.0459,0
2013-08-28 0:27:50,59.4059,0
2013-08-28 0:27:51,65.2174,0
2013-08-28 0:27:52,65.9341,0
2013-08-28 0:27:53,60.6061,0
2013-08-28 0:27:54,60.6061,0
2013-08-28 0:27:55,63.8298,0
2013-08-28 0:27:56,65.9341,0
2013-08-28 0:27:57,59.4059,0
2013-08-28 0:27:58,56.0748,0
2013-08-28 0:27:59,61.2245,0
2013-08-28 0:28:0,63.8298,0
2013-08-28 0:28:2,58.2524,1
2013-08-28 0:28:3,63.8298,0
2013-08-28 0:28:4,58.8235,0
2013-08-28 0:28:5,62.5,0
2013-08-28 0:28:6,68.1818,0
2013-08-28 0:28:7,58.8235,0
2013-08-28 0:28:8,63.8298,0
2013-08-28 0:28:9,72.2892,0
2013-08-28 0:28:10,69.7674,1
2013-08-28 0:28:11,68.1818,0
2013-08-28 0:28:12,75.9494,0
2013-08-28 0:28:13,75.9494,0
2013-08-28 0:28:13,76.9231,0
2013-08-28 0:28:14,76.9231,0
2013-08-28 0:28:15,78.9474,0
2013-08-28 0:28:16,75.9494,0
2013-08-28 0:28:17,70.5882,0
2013-08-28 0:28:17,71.4286,0
2013-08-28 0:28:18,66.6667,0
2013-08-28 0:28:19,60.6061,0
2013-08-28 0:28:20,63.1579,0
2013-08-28 0:28:21,64.5161,0
2013-08-28 0:28:22,57.1429,0
2013-08-28 0:28:23,60,0
2013-08-28 0:28:24,57.6923,0
2013-08-28 0:28:26,54.0541,1
2013-08-28 0:28:27,58.2524,0
2013-08-28 0:28:28,58.8235,0
2013-08-28 0:28:29,55.5556,0
2013-08-28 0:28:31,60.6061,0
2013-08-28 0:28:32,63.1579,0
2013-08-28 0:28:32,67.4157,0
2013-08-28 0:28:33,69.7674,0
2013-08-28 0:28:34,71.4286,0
2013-08-28 0:28:35,68.1818,0
2013-08-28 0:28:36,58.8235,0
2013-08-28 0:28:37,64.5161,0
2013-08-28 0:28:38,64.5161,0
2013-08-28 0:28:39,57.1429,0
2013-08-28 0:28:40,58.8235,0
2013-08-28 0:28:41,62.5,0
2013-08-28 0:28:42,57.6923,0
2013-08-28 0:28:43,60,0
2013-08-28 0:28:44,61.8557,0
2013-08-28 0:28:45,56.6038,0
2013-08-28 0:28:46,58.8235,0
2013-08-28 0:28:47,63.8298,0
2013-08-28 0:28:48,56.6038,0
2013-08-28 0:28:49,62.5,0
2013-08-28 0:28:50,66.6667,0
2013-08-28 0:28:52,68.9655,1
2013-08-28 0:28:53,65.2174,0
2013-08-28 0:28:54,73.1707,0
2013-08-28 0:28:55,73.1707,0
2013-08-28 0:28:56,70.5882,0
2013-08-28 0:28:57,75,0
2013-08-28 0:28:57,73.1707,0
2013-08-28 0:28:58,72.2892,0
2013-08-28 0:28:59,70.5882,0
2013-08-28 0:29:0,72.2892,0
2013-08-28 0:29:1,66.6667,0
2013-08-28 0:29:2,59.4059,0
2013-08-28 0:29:3,60,0
2013-08-28 0:29:4,60.6061,0
2013-08-28 0:29:5,56.0748,0
2013-08-28 0:29:6,57.6923,0
2013-08-28 0:29:7,61.2245,0
2013-08-28 0:29:8,59.4059,0
2013-08-28 0:29:9,60,0
2013-08-28 0:29:10,62.5,0
2013-08-28 0:29:11,65.2174,0
2013-08-28 0:29:12,64.5161,0
2013-08-28 0:29:13,58.8235,0
2013-08-28 0:29:14,58.8235,0
2013-08-28 0:29:15,63.1579,0
2013-08-28 0:29:16,64.5161,0
2013-08-28 0:29:17,63.1579,0
2013-08-28 0:29:17,65.9341,0
2013-08-28 0:29:18,64.5161,0
2013-08-28 0:29:19,59.4059,0
2013-08-28 0:29:20,64.5161,0
2013-08-28 0:29:21,65.2174,0
2013-08-28 0:29:22,65.9341,0
2013-08-28 0:29:23,60.6061,0
2013-08-28 0:29:24,64.5161,0
2013-08-28 0:29:25,65.9341,0
2013-08-28 0:29:26,58.8235,0
2013-08-28 0:29:27,61.2245,0
2013-08-28 0:29:28,64.5161,0
2013-08-28 0:29:29,58.2524,0
2013-08-28 0:29:30,62.5,0
2013-08-28 0:29:31,63.8298,0
2013-08-28 0:29:32,68.1818,0
2013-08-28 0:29:33,71.4286,0
2013-08-28 0:29:35,68.1818,1
2013-08-28 0:29:36,72.2892,0
2013-08-28 0:29:37,75,0
2013-08-28 0:29:38,75,0
2013-08-28 0:29:38,75,0
2013-08-28 0:29:39,75.9494,0
2013-08-28 0:29:40,74.0741,0
2013-08-28 0:29:41,64.5161,0
2013-08-28 0:29:42,64.5161,0
2013-08-28 0:29:43,65.9341,0
2013-08-28 0:29:45,58.2524,1
2013-08-28 0:29:46,63.1579,0
2013-08-28 0:29:47,60.6061,0
2013-08-28 0:29:48,60.6061,0
2013-08-28 0:29:49,64.5161,0
2013-08-28 0:29:49,62.5,0
2013-08-28 0:29:50,59.4059,0
2013-08-28 0:29:51,62.5,0
2013-08-28 0:29:52,65.9341,0
2013-08-28 0:29:53,63.8298,0
2013-08-28 0:29:54,58.2524,0
2013-08-28 0:29:55,58.8235,0
2013-08-28 0:29:56,63.1579,0
2013-08-28 0:29:57,61.2245,0
2013-08-28 0:29:58,55.0459,0
2013-08-28 0:29:59,61.2245,0
2013-08-28 0:30:0,65.2174,0
2013-08-28 0:30:1,65.2174,0
2013-08-28 0:30:2,60.6061,0
2013-08-28 0:30:3,63.1579,0
2013-08-28 0:30:4,64.5161,0
2013-08-28 0:30:5,62.5,0
2013-08-28 0:30:6,57.1429,0
2013-08-28 0:30:7,63.8298,0
2013-08-28 0:30:8,64.5161,0
2013-08-28 0:30:9,55.0459,0
2013-08-28 0:30:10,56.0748,0
2013-08-28 0:30:11,63.8298,0
2013-08-28 0:30:13,60.6061,1
2013-08-28 0:30:16,66.6667,1
2013-08-28 0:30:17,58.2524,0
2013-08-28 0:30:19,73.1707,1
2013-08-28 0:30:19,73.1707,0
2013-08-28 0:30:20,71.4286,0
2013-08-28 0:30:21,71.4286,0
2013-08-28 0:30:22,67.4157,0
2013-08-28 0:30:23,63.8298,0
2013-08-28 0:30:24,64.5161,0
2013-08-28 0:30:25,56.0748,0
2013-08-28 0:30:27,58.2524,1
2013-08-28 0:30:28,58.8235,0
2013-08-28 0:30:29,57.1429,0
2013-08-28 0:30:30,61.8557,0
2013-08-28 0:30:31,63.1579,0
2013-08-28 0:30:32,62.5,0
2013-08-28 0:30:33,65.9341,0
2013-08-28 0:30:34,68.9655,0
2013-08-28 0:30:35,67.4157,0
2013-08-28 0:30:35,62.5,0
2013-08-28 0:30:36,65.2174,0
2013-08-28 0:30:37,68.1818,0
2013-08-28 0:30:38,62.5,0
2013-08-28 0:30:39,58.2524,0
2013-08-28 0:30:40,67.4157,0
2013-08-28 0:30:41,68.1818,0
2013-08-28 0:30:42,61.8557,0
2013-08-28 0:30:43,56.0748,0
2013-08-28 0:30:44,61.2245,0
2013-08-28 0:30:45,58.2524,0
2013-08-28 0:30:46,55.5556,0
2013-08-28 0:30:47,60.6061,0
2013-08-28 0:30:48,51.2821,0
2013-08-28 0:30:49,55.5556,0
2013-08-28 0:30:50,60.6061,0
2013-08-28 0:30:51,58.2524,0
2013-08-28 0:30:52,56.6038,0
2013-08-28 0:30:53,65.2174,0
2013-08-28 0:30:55,65.2174,1
2013-08-28 0:30:56,56.0748,0
2013-08-28 0:30:58,73.1707,1
2013-08-28 0:31:2,73.1707,1
2013-08-28 0:31:3,72.2892,0
2013-08-28 0:31:4,69.7674,0
2013-08-28 0:31:4,66.6667,0
2013-08-28 0:31:5,63.8298,0
2013-08-28 0:31:6,63.8298,0
2013-08-28 0:31:7,61.8557,0
2013-08-28 0:31:8,60.6061,0
2013-08-28 0:31:9,63.8298,0
2013-08-28 0:31:10,61.2245,0
2013-08-28 0:31:12,56.6038,1
2013-08-28 0:31:13,64.5161,0
2013-08-28 0:31:14,64.5161,0
2013-08-28 0:31:15,61.2245,0
2013-08-28 0:31:16,65.9341,0
2013-08-28 0:31:17,68.1818,0
2013-08-28 0:31:18,60,0
2013-08-28 0:31:19,60,0
2013-08-28 0:31:20,65.2174,0
2013-08-28 0:31:21,65.2174,0
2013-08-28 0:31:22,58.8235,0
2013-08-28 0:31:23,60,0
2013-08-28 0:31:24,62.5,0
2013-08-28 0:31:25,63.1579,0
2013-08-28 0:31:26,57.6923,0
2013-08-28 0:31:27,56.0748,0
2013-08-28 0:31:28,58.2524,0
2013-08-28 0:31:29,54.0541,0
2013-08-28 0:31:30,56.6038,0
2013-08-28 0:31:31,62.5,0
2013-08-28 0:31:32,53.5714,0
2013-08-28 0:31:33,54.0541,0
2013-08-28 0:31:34,58.8235,0
2013-08-28 0:31:38,75,1
2013-08-28 0:31:40,57.1429,1
2013-08-28 0:31:42,74.0741,1
2013-08-28 0:31:43,75,0
2013-08-28 0:31:44,75,0
2013-08-28 0:31:45,75,0
2013-08-28 0:31:46,76.9231,0
2013-08-28 0:31:46,75,0
2013-08-28 0:31:47,70.5882,0
2013-08-28 0:31:50,59.4059,1
2013-08-28 0:31:51,55.5556,0
2013-08-28 0:31:52,54.0541,0
2013-08-28 0:31:54,57.1429,0
2013-08-28 0:31:55,53.0973,0
2013-08-28 0:31:56,53.0973,0
2013-08-28 0:31:57,58.2524,0
2013-08-28 0:31:58,60.6061,0
2013-08-28 0:31:59,61.2245,0
2013-08-28 0:32:0,64.5161,0
2013-08-28 0:32:1,65.2174,0
2013-08-28 0:32:2,63.8298,0
2013-08-28 0:32:3,65.9341,0
2013-08-28 0:32:4,65.2174,0
2013-08-28 0:32:5,62.5,0
2013-08-28 0:32:5,63.8298,0
2013-08-28 0:32:6,64.5161,0
2013-08-28 0:32:7,60.6061,0
2013-08-28 0:32:8,59.4059,0
2013-08-28 0:32:9,60,0
2013-08-28 0:32:10,65.9341,0
2013-08-28 0:32:11,65.9341,0
2013-08-28 0:32:12,60.6061,0
2013-08-28 0:32:13,60,0
2013-08-28 0:32:14,61.2245,0
2013-08-28 0:32:15,61.2245,0
2013-08-28 0:32:16,58.2524,0
2013-08-28 0:32:17,58.2524,0
2013-08-28 0:32:18,62.5,0
2013-08-28 0:32:19,60,0
2013-08-28 0:32:20,56.0748,0
2013-08-28 0:32:21,58.8235,0
2013-08-28 0:32:22,50.4202,0
2013-08-28 0:32:23,58.2524,0
2013-08-28 0:32:24,63.1579,0
2013-08-28 0:32:25,63.8298,0
2013-08-28 0:32:28,72.2892,1
2013-08-28 0:32:31,72.2892,1
2013-08-28 0:32:32,70.5882,0
2013-08-28 0:32:33,64.5161,0
2013-08-28 0:32:33,74.0741,0
2013-08-28 0:32:34,75,0
2013-08-28 0:32:35,75,0
2013-08-28 0:32:36,76.9231,0
2013-08-28 0:32:37,74.0741,0
2013-08-28 0:32:37,73.1707,0
2013-08-28 0:32:38,65.2174,0
2013-08-28 0:32:39,60.6061,0
2013-08-28 0:32:40,61.2245,0
2013-08-28 0:32:41,60,0
2013-08-28 0:32:42,60.6061,0
2013-08-28 0:32:43,63.8298,0
2013-08-28 0:32:44,62.5,0
2013-08-28 0:32:45,60.6061,0
2013-08-28 0:32:46,60,0
2013-08-28 0:32:47,63.1579,0
2013-08-28 0:32:48,64.5161,0
2013-08-28 0:32:49,63.1579,0
2013-08-28 0:32:50,65.9341,0
2013-08-28 0:32:51,64.5161,0
2013-08-28 0:32:52,60.6061,0
2013-08-28 0:32:53,61.2245,0
2013-08-28 0:32:54,58.8235,0
2013-08-28 0:32:55,57.6923,0
2013-08-28 0:32:56,61.8557,0
2013-08-28 0:32:57,62.5,0
2013-08-28 0:32:58,58.2524,0
2013-08-28 0:32:59,55.5556,0
2013-08-28 0:33:0,61.2245,0
2013-08-28 0:33:1,60,0
2013-08-28 0:33:2,50.4202,0
2013-08-28 0:33:4,63.8298,1
2013-08-28 0:33:5,56.0748,0
2013-08-28 0:33:6,62.5,0
2013-08-28 0:33:7,68.1818,0
2013-08-28 0:33:9,70.5882,1
2013-08-28 0:33:11,71.4286,1
2013-08-28 0:33:12,68.1818,0
2013-08-28 0:33:13,69.7674,0
2013-08-28 0:33:14,74.0741,0
2013-08-28 0:33:15,72.2892,0
2013-08-28 0:33:16,68.1818,0
2013-08-28 0:33:16,69.7674,0
2013-08-28 0:33:17,66.6667,0
2013-08-28 0:33:18,58.2524,0
2013-08-28 0:33:19,58.8235,0
2013-08-28 0:33:20,61.2245,0
2013-08-28 0:33:21,59.4059,0
2013-08-28 0:33:22,61.2245,0
2013-08-28 0:33:23,53.5714,0
2013-08-28 0:33:24,54.5455,0
2013-08-28 0:33:25,57.6923,0
2013-08-28 0:33:27,57.1429,0
2013-08-28 0:33:28,57.1429,0
2013-08-28 0:33:29,60.6061,0
2013-08-28 0:33:30,65.9341,0
2013-08-28 0:33:31,65.9341,0
2013-08-28 0:33:31,58.8235,0
2013-08-28 0:33:32,57.1429,0
2013-08-28 0:33:33,60.6061,0
2013-08-28 0:33:34,65.9341,0
2013-08-28 0:33:35,64.5161,0
2013-08-28 0:33:36,56.6038,0
2013-08-28 0:33:37,63.1579,0
2013-08-28 0:33:38,65.9341,0
2013-08-28 0:33:39,63.1579,0
2013-08-28 0:33:40,56.6038,0
2013-08-28 0:33:41,63.1579,0
2013-08-28 0:33:42,63.8298,0
2013-08-28 0:33:43,61.2245,0
2013-08-28 0:33:44,58.2524,0
2013-08-28 0:33:45,61.8557,0
2013-08-28 0:33:46,65.2174,0
2013-08-28 0:33:47,66.6667,0
2013-08-28 0:33:48,71.4286,0
2013-08-28 0:33:49,74.0741,0
2013-08-28 0:33:50,70.5882,0
2013-08-28 0:33:50,69.7674,0
2013-08-28 0:33:51,75,0
2013-08-28 0:33:52,75.9494,0
2013-08-28 0:33:53,75.9494,0
2013-08-28 0:33:54,75,0
2013-08-28 0:33:54,75.9494,0
2013-08-28 0:33:55,75,0
2013-08-28 0:33:56,71.4286,0
2013-08-28 0:33:57,72.2892,0
2013-08-28 0:33:58,71.4286,0
2013-08-28 0:33:59,63.1579,0
2013-08-28 0:34:0,61.8557,0
2013-08-28 0:34:1,64.5161,0
2013-08-28 0:34:1,60.6061,0
2013-08-28 0:34:2,58.8235,0
2013-08-28 0:34:3,63.1579,0
2013-08-28 0:34:4,61.8557,0
2013-08-28 0:34:5,57.6923,0
2013-08-28 0:34:6,60,0
2013-08-28 0:34:7,62.5,0
2013-08-28 0:34:8,63.1579,0
2013-08-28 0:34:9,60,0
2013-08-28 0:34:10,61.2245,0
2013-08-28 0:34:11,63.8298,0
2013-08-28 0:34:12,63.1579,0
2013-08-28 0:34:13,58.8235,0
2013-08-28 0:34:14,63.8298,0
2013-08-28 0:34:15,68.1818,0
2013-08-28 0:34:16,67.4157,0
2013-08-28 0:34:17,60.6061,0
2013-08-28 0:34:18,63.8298,0
2013-08-28 0:34:19,65.9341,0
2013-08-28 0:34:20,63.1579,0
2013-08-28 0:34:21,57.1429,0
2013-08-28 0:34:22,63.8298,0
2013-08-28 0:34:23,64.5161,0
2013-08-28 0:34:24,57.6923,0
2013-08-28 0:34:25,56.6038,0
2013-08-28 0:34:26,57.1429,0
2013-08-28 0:34:27,56.0748,0
2013-08-28 0:34:28,56.6038,0
2013-08-28 0:34:29,58.2524,0
2013-08-28 0:34:30,61.8557,0
2013-08-28 0:34:31,56.6038,0
2013-08-28 0:34:32,58.2524,0
2013-08-28 0:34:33,64.5161,0
2013-08-28 0:34:37,73.1707,1
2013-08-28 0:34:37,67.4157,0
2013-08-28 0:34:38,72.2892,0
2013-08-28 0:34:39,75,0
2013-08-28 0:34:40,73.1707,0
2013-08-28 0:34:41,75.9494,0
2013-08-28 0:34:41,75.9494,0
2013-08-28 0:34:42,75,0
2013-08-28 0:34:43,68.9655,0
2013-08-28 0:34:44,69.7674,0
2013-08-28 0:34:45,69.7674,0
2013-08-28 0:34:46,62.5,0
2013-08-28 0:34:47,62.5,0
2013-08-28 0:34:48,66.6667,0
2013-08-28 0:34:48,63.1579,0
2013-08-28 0:34:49,63.8298,0
2013-08-28 0:34:50,67.4157,0
2013-08-28 0:34:51,63.8298,0
2013-08-28 0:34:52,59.4059,0
2013-08-28 0:34:53,62.5,0
2013-08-28 0:34:54,67.4157,0
2013-08-28 0:34:55,67.4157,0
2013-08-28 0:34:56,65.9341,0
2013-08-28 0:34:57,63.8298,0
2013-08-28 0:34:58,68.1818,0
2013-08-28 0:34:59,68.1818,0
2013-08-28 0:35:0,65.9341,0
2013-08-28 0:35:0,62.5,0
2013-08-28 0:35:1,68.1818,0
2013-08-28 0:35:2,66.6667,0
2013-08-28 0:35:3,63.8298,0
2013-08-28 0:35:4,61.2245,0
2013-08-28 0:35:5,65.2174,0
2013-08-28 0:35:6,63.8298,0
2013-08-28 0:35:7,55.0459,0
2013-08-28 0:35:8,60.6061,0
2013-08-28 0:35:9,63.1579,0
2013-08-28 0:35:10,59.4059,0
2013-08-28 0:35:11,55.5556,0
2013-08-28 0:35:12,60.6061,0
2013-08-28 0:35:13,57.1429,0
2013-08-28 0:35:14,54.0541,0
2013-08-28 0:35:15,60,0
2013-08-28 0:35:16,63.8298,0
2013-08-28 0:35:21,74.0741,1
2013-08-28 0:35:22,74.0741,0
2013-08-28 0:35:23,75.9494,1
2013-08-28 0:35:24,75.9494,0
2013-08-28 0:35:25,72.2892,0
2013-08-28 0:35:26,75.9494,0
2013-08-28 0:35:26,74.0741,0
2013-08-28 0:35:27,76.9231,0
2013-08-28 0:35:28,75.9494,0
2013-08-28 0:35:29,75.9494,0
2013-08-28 0:35:30,68.9655,0
2013-08-28 0:35:31,63.1579,0
2013-08-28 0:35:31,64.5161,0
2013-08-28 0:35:32,67.4157,0
2013-08-28 0:35:33,63.8298,0
2013-08-28 0:35:34,60.6061,0
2013-08-28 0:35:35,58.8235,0
2013-08-28 0:35:36,60.6061,0
2013-08-28 0:35:37,60,0
2013-08-28 0:35:38,56.6038,0
2013-08-28 0:35:39,64.5161,0
2013-08-28 0:35:40,63.1579,0
2013-08-28 0:35:41,65.2174,0
2013-08-28 0:35:42,67.4157,0
2013-08-28 0:35:43,65.9341,0
2013-08-28 0:35:44,61.8557,0
2013-08-28 0:35:45,59.4059,0
2013-08-28 0:35:46,63.8298,0
2013-08-28 0:35:47,64.5161,0
2013-08-28 0:35:48,56.6038,0
2013-08-28 0:35:49,57.1429,0
2013-08-28 0:35:50,63.8298,0
2013-08-28 0:35:51,61.8557,0
2013-08-28 0:35:52,59.4059,0
2013-08-28 0:35:53,64.5161,0
2013-08-28 0:35:54,65.9341,0
2013-08-28 0:35:56,61.8557,1
2013-08-28 0:35:57,54.0541,0
2013-08-28 0:35:58,51.2821,0
2013-08-28 0:35:59,60.6061,0
2013-08-28 0:36:0,61.8557,0
2013-08-28 0:36:4,70.5882,1
2013-08-28 0:36:7,68.1818,1
2013-08-28 0:36:8,65.9341,0
2013-08-28 0:36:9,69.7674,0
2013-08-28 0:36:10,71.4286,0
2013-08-28 0:36:10,66.6667,0
2013-08-28 0:36:11,66.6667,0
2013-08-28 0:36:12,62.5,0
2013-08-28 0:36:13,61.8557,0
2013-08-28 0:36:14,63.8298,0
2013-08-28 0:36:15,54.0541,0
2013-08-28 0:36:16,55.0459,0
2013-08-28 0:36:17,60.6061,0
2013-08-28 0:36:18,59.4059,0
2013-08-28 0:36:19,57.1429,0
2013-08-28 0:36:20,61.2245,0
2013-08-28 0:36:21,63.1579,0
2013-08-28 0:36:22,60.6061,0
2013-08-28 0:36:23,65.9341,0
2013-08-28 0:36:24,65.9341,0
2013-08-28 0:36:25,62.5,0
2013-08-28 0:36:26,66.6667,0
2013-08-28 0:36:27,59.4059,0
2013-08-28 0:36:28,54.5455,0
2013-08-28 0:36:29,58.8235,0
2013-08-28 0:36:30,61.8557,0
2013-08-28 0:36:31,57.6923,0
2013-08-28 0:36:32,52.1739,0
2013-08-28 0:36:33,61.8557,0
2013-08-28 0:36:34,64.5161,0
2013-08-28 0:36:35,56.0748,0
2013-08-28 0:36:36,64.5161,0
2013-08-28 0:36:37,61.8557,0
2013-08-28 0:36:38,60,0
2013-08-28 0:36:40,72.2892,1
2013-08-28 0:36:41,68.9655,0
2013-08-28 0:36:42,67.4157,0
2013-08-28 0:36:42,70.5882,0
2013-08-28 0:36:43,72.2892,0
2013-08-28 0:36:44,72.2892,0
2013-08-28 0:36:45,70.5882,0
2013-08-28 0:36:46,70.5882,0
2013-08-28 0:36:47,70.5882,0
2013-08-28 0:36:48,62.5,0
2013-08-28 0:36:48,61.8557,0
2013-08-28 0:36:49,65.2174,0
2013-08-28 0:36:50,64.5161,0
2013-08-28 0:36:51,60.6061,0
2013-08-28 0:36:52,66.6667,0
2013-08-28 0:36:53,64.5161,0
2013-08-28 0:36:54,63.1579,0
2013-08-28 0:36:55,65.9341,0
2013-08-28 0:36:56,65.2174,0
2013-08-28 0:36:57,56.6038,0
2013-08-28 0:36:58,61.2245,0
2013-08-28 0:36:59,62.5,0
2013-08-28 0:37:0,53.5714,0
2013-08-28 0:37:1,56.6038,0
2013-08-28 0:37:2,61.2245,0
2013-08-28 0:37:3,56.6038,0
2013-08-28 0:37:4,54.5455,0
2013-08-28 0:37:5,61.2245,0
2013-08-28 0:37:6,64.5161,0
2013-08-28 0:37:7,62.5,0
2013-08-28 0:37:8,63.8298,0
2013-08-28 0:37:9,63.8298,0
2013-08-28 0:37:10,58.8235,0
2013-08-28 0:37:11,55.5556,0
2013-08-28 0:37:12,58.8235,0
2013-08-28 0:37:13,54.5455,0
2013-08-28 0:37:14,56.6038,0
2013-08-28 0:37:15,65.9341,0
2013-08-28 0:37:16,69.7674,0
2013-08-28 0:37:19,69.7674,1
2013-08-28 0:37:19,60.6061,0
2013-08-28 0:37:22,75.9494,1
2013-08-28 0:37:24,78.9474,1
2013-08-28 0:37:24,80,0
2013-08-28 0:37:25,77.9221,0
2013-08-28 0:37:26,81.0811,0
2013-08-28 0:37:27,81.0811,0
2013-08-28 0:37:27,80,0
2013-08-28 0:37:28,78.9474,0
2013-08-28 0:37:29,71.4286,0
2013-08-28 0:37:30,64.5161,0
2013-08-28 0:37:36,56.6038,1
2013-08-28 0:37:37,56.6038,0
2013-08-28 0:37:38,56.0748,0
2013-08-28 0:37:39,61.8557,0
2013-08-28 0:37:40,63.8298,0
2013-08-28 0:37:41,61.2245,0
2013-08-28 0:37:42,61.2245,0
2013-08-28 0:37:43,65.9341,0
2013-08-28 0:37:44,68.1818,0
2013-08-28 0:37:45,69.7674,0
2013-08-28 0:37:46,65.2174,0
2013-08-28 0:37:47,68.9655,0
2013-08-28 0:37:47,68.9655,0
2013-08-28 0:37:48,61.2245,0
2013-08-28 0:37:49,60.6061,0
2013-08-28 0:37:50,65.2174,0
2013-08-28 0:37:51,65.9341,0
2013-08-28 0:37:53,61.2245,1
2013-08-28 0:37:54,63.8298,0
2013-08-28 0:37:55,61.2245,0
2013-08-28 0:37:56,56.0748,0
2013-08-28 0:37:57,58.8235,0
2013-08-28 0:37:58,62.5,0
2013-08-28 0:37:59,52.6316,0
2013-08-28 0:38:0,50.8475,0
2013-08-28 0:38:2,68.9655,1
2013-08-28 0:38:7,66.6667,1
2013-08-28 0:38:8,69.7674,0
2013-08-28 0:38:9,72.2892,0
2013-08-28 0:38:10,75,0
2013-08-28 0:38:12,76.9231,1
2013-08-28 0:38:15,58.8235,1
2013-08-28 0:38:16,56.0748,0
2013-08-28 0:38:17,60,0
2013-08-28 0:38:18,59.4059,0
2013-08-28 0:38:19,56.0748,0
2013-08-28 0:38:20,59.4059,0
2013-08-28 0:38:21,60,0
2013-08-28 0:38:22,56.6038,0
2013-08-28 0:38:23,60,0
2013-08-28 0:38:24,63.8298,0
2013-08-28 0:38:25,61.2245,0
2013-08-28 0:38:26,63.1579,0
2013-08-28 0:38:27,65.9341,0
2013-08-28 0:38:28,60.6061,0
2013-08-28 0:38:29,60.6061,0
2013-08-28 0:38:30,65.2174,0
2013-08-28 0:38:31,59.4059,0
2013-08-28 0:38:32,53.5714,0
2013-08-28 0:38:33,54.5455,0
2013-08-28 0:38:34,58.8235,0
2013-08-28 0:38:35,55.5556,0
2013-08-28 0:38:36,56.6038,0
2013-08-28 0:38:37,61.2245,0
2013-08-28 0:38:38,56.0748,0
2013-08-28 0:38:39,59.4059,0
2013-08-28 0:38:41,61.8557,0
2013-08-28 0:38:41,55.5556,0
2013-08-28 0:38:43,57.1429,0
2013-08-28 0:38:44,61.8557,0
2013-08-28 0:38:45,56.0748,0
2013-08-28 0:38:46,65.2174,0
2013-08-28 0:38:57,89.5522,1
2013-08-28 0:38:57,89.5522,0
2013-08-28 0:38:58,88.2353,0
2013-08-28 0:38:59,88.2353,0
2013-08-28 0:38:59,88.2353,0
2013-08-28 0:39:0,78.9474,0
2013-08-28 0:39:8,63.1579,1
2013-08-28 0:39:9,64.5161,0
2013-08-28 0:39:10,60.6061,0
2013-08-28 0:39:11,65.2174,0
2013-08-28 0:39:12,65.2174,0
2013-08-28 0:39:13,58.2524,0
2013-08-28 0:39:14,63.8298,0
2013-08-28 0:39:15,62.5,0
2013-08-28 0:39:16,55.5556,0
2013-08-28 0:39:17,62.5,0
2013-08-28 0:39:18,61.8557,0
2013-08-28 0:39:20,56.0748,1
2013-08-28 0:39:21,63.1579,0
2013-08-28 0:39:22,65.2174,0
2013-08-28 0:39:23,63.1579,0
2013-08-28 0:39:24,64.5161,0
2013-08-28 0:39:25,63.1579,0
2013-08-28 0:39:25,54.0541,0
2013-08-28 0:39:27,63.8298,0
2013-08-28 0:39:28,65.2174,0
2013-08-28 0:39:28,62.5,0
2013-08-28 0:39:29,63.1579,0
2013-08-28 0:39:31,74.0741,1
2013-08-28 0:39:32,65.2174,0
2013-08-28 0:39:33,72.2892,0
2013-08-28 0:39:34,74.0741,0
2013-08-28 0:39:35,74.0741,0
2013-08-28 0:39:35,73.1707,0
2013-08-28 0:39:36,73.1707,0
2013-08-28 0:39:37,75,0
2013-08-28 0:39:38,73.1707,0
2013-08-28 0:39:39,72.2892,0
2013-08-28 0:39:39,68.9655,0
2013-08-28 0:39:41,57.1429,1
2013-08-28 0:39:42,61.2245,0
2013-08-28 0:39:43,56.0748,0
2013-08-28 0:39:45,60,0
2013-08-28 0:39:46,59.4059,0
2013-08-28 0:39:47,56.0748,0
2013-08-28 0:39:48,58.2524,0
2013-08-28 0:39:49,55.5556,0
2013-08-28 0:39:50,55.5556,0
2013-08-28 0:39:51,60.6061,0
2013-08-28 0:39:52,61.2245,0
2013-08-28 0:39:53,54.5455,0
2013-08-28 0:39:54,59.4059,0
2013-08-28 0:39:55,59.4059,0
2013-08-28 0:39:56,67.4157,0
2013-08-28 0:39:57,65.2174,0
2013-08-28 0:39:58,58.8235,0
2013-08-28 0:39:59,63.1579,0
2013-08-28 0:40:0,56.6038,0
2013-08-28 0:40:1,53.0973,0
2013-08-28 0:40:2,57.1429,0
2013-08-28 0:40:3,61.2245,0
2013-08-28 0:40:5,54.5455,1
2013-08-28 0:40:6,60,0
2013-08-28 0:40:7,53.5714,0
2013-08-28 0:40:8,58.8235,0
2013-08-28 0:40:9,63.8298,0
2013-08-28 0:40:10,54.5455,0
2013-08-28 0:40:11,62.5,0
2013-08-28 0:40:16,68.9655,1
2013-08-28 0:40:17,70.5882,0
2013-08-28 0:40:18,71.4286,0
2013-08-28 0:40:19,73.1707,0
2013-08-28 0:40:20,71.4286,0
2013-08-28 0:40:21,62.5,1
2013-08-28 0:40:22,60,0
2013-08-28 0:40:23,55.5556,0
2013-08-28 0:40:24,60.6061,0
2013-08-28 0:40:25,59.4059,0
2013-08-28 0:40:26,58.2524,0
2013-08-28 0:40:28,60.6061,0
2013-08-28 0:40:29,58.8235,0
2013-08-28 0:40:30,57.1429,0
2013-08-28 0:40:31,60.6061,0
2013-08-28 0:40:32,60,0
2013-08-28 0:40:33,63.1579,0
2013-08-28 0:40:34,65.9341,0
2013-08-28 0:40:34,66.6667,0
2013-08-28 0:40:35,63.1579,0
2013-08-28 0:40:36,67.4157,0
2013-08-28 0:40:37,65.2174,0
2013-08-28 0:40:38,60.6061,0
2013-08-28 0:40:39,63.8298,0
2013-08-28 0:40:40,63.1579,0
2013-08-28 0:40:41,60,0
2013-08-28 0:40:42,60.6061,0
2013-08-28 0:40:43,60,0
2013-08-28 0:40:44,52.6316,0
2013-08-28 0:40:45,55.5556,0
2013-08-28 0:40:46,61.8557,0
2013-08-28 0:40:47,55.5556,0
2013-08-28 0:40:48,55.0459,0
2013-08-28 0:40:49,57.6923,0
2013-08-28 0:40:50,55.5556,0
2013-08-28 0:40:51,56.6038,0
2013-08-28 0:40:52,59.4059,0
2013-08-28 0:40:54,57.6923,0
2013-08-28 0:40:55,52.6316,0
2013-08-28 0:40:57,70.5882,1
2013-08-28 0:40:58,64.5161,0
2013-08-28 0:41:2,74.0741,1
2013-08-28 0:41:2,73.1707,0
2013-08-28 0:41:3,75.9494,0
2013-08-28 0:41:4,73.1707,0
2013-08-28 0:41:5,70.5882,0
2013-08-28 0:41:6,67.4157,0
2013-08-28 0:41:7,68.1818,0
2013-08-28 0:41:7,60.6061,0
2013-08-28 0:41:8,60.6061,0
2013-08-28 0:41:9,61.2245,0
2013-08-28 0:41:10,56.6038,0
2013-08-28 0:41:11,59.4059,0
2013-08-28 0:41:12,58.8235,0
2013-08-28 0:41:13,57.6923,0
2013-08-28 0:41:14,60,0
2013-08-28 0:41:15,65.2174,0
2013-08-28 0:41:16,61.2245,0
2013-08-28 0:41:17,63.1579,0
2013-08-28 0:41:18,65.2174,0
2013-08-28 0:41:19,61.8557,0
2013-08-28 0:41:20,54.5455,0
2013-08-28 0:41:21,61.2245,0
2013-08-28 0:41:22,61.2245,0
2013-08-28 0:41:23,57.1429,0
2013-08-28 0:41:24,64.5161,0
2013-08-28 0:41:25,64.5161,0
2013-08-28 0:41:26,61.8557,0
2013-08-28 0:41:27,57.6923,0
2013-08-28 0:41:28,62.5,0
2013-08-28 0:41:29,61.8557,0
2013-08-28 0:41:31,59.4059,1
2013-08-28 0:41:32,53.0973,0
2013-08-28 0:41:33,50.8475,0
2013-08-28 0:41:35,57.6923,0
2013-08-28 0:41:36,54.0541,0
2013-08-28 0:41:37,52.1739,0
2013-08-28 0:41:38,59.4059,0
2013-08-28 0:41:39,60,0
2013-08-28 0:41:40,56.0748,0
2013-08-28 0:41:41,57.6923,0
2013-08-28 0:41:42,55.0459,0
2013-08-28 0:41:43,58.2524,0
2013-08-28 0:41:44,68.1818,0
2013-08-28 0:41:46,70.5882,1
2013-08-28 0:41:50,75.9494,1
2013-08-28 0:41:51,75,0
2013-08-28 0:41:52,73.1707,0
2013-08-28 0:41:52,69.7674,0
2013-08-28 0:41:53,63.8298,0
2013-08-28 0:41:54,65.9341,0
2013-08-28 0:41:55,61.2245,0
2013-08-28 0:41:57,57.6923,1
2013-08-28 0:41:58,55.0459,0
2013-08-28 0:41:59,56.6038,0
2013-08-28 0:42:0,61.2245,0
2013-08-28 0:42:1,58.2524,0
2013-08-28 0:42:2,57.6923,0
2013-08-28 0:42:3,62.5,0
2013-08-28 0:42:4,66.6667,0
2013-08-28 0:42:5,63.8298,0
2013-08-28 0:42:6,60,0
2013-08-28 0:42:7,65.9341,0
2013-08-28 0:42:8,66.6667,0
2013-08-28 0:42:9,60.6061,0
2013-08-28 0:42:10,61.2245,0
2013-08-28 0:42:11,65.2174,0
2013-08-28 0:42:13,56.0748,1
2013-08-28 0:42:14,62.5,0
2013-08-28 0:42:15,60,0
2013-08-28 0:42:16,60,0
2013-08-28 0:42:17,64.5161,0
2013-08-28 0:42:18,64.5161,0
2013-08-28 0:42:19,58.8235,0
2013-08-28 0:42:21,54.5455,1
2013-08-28 0:42:24,51.7241,1
2013-08-28 0:42:25,57.6923,0
2013-08-28 0:42:26,48.7805,0
2013-08-28 0:42:32,69.7674,1
2013-08-28 0:42:33,69.7674,0
2013-08-28 0:42:34,74.0741,0
2013-08-28 0:42:35,73.1707,0
2013-08-28 0:42:35,68.9655,0
2013-08-28 0:42:36,71.4286,0
2013-08-28 0:42:37,68.1818,0
2013-08-28 0:42:38,59.4059,0
2013-08-28 0:42:39,58.2524,0
2013-08-28 0:42:40,58.2524,0
2013-08-28 0:42:42,56.6038,1
2013-08-28 0:42:43,58.2524,0
2013-08-28 0:42:44,55.0459,0
2013-08-28 0:42:45,58.2524,0
2013-08-28 0:42:46,54.0541,0
2013-08-28 0:42:48,55.5556,0
2013-08-28 0:42:49,59.4059,0
2013-08-28 0:42:50,65.2174,0
2013-08-28 0:42:51,66.6667,0
2013-08-28 0:42:51,63.8298,0
2013-08-28 0:42:52,67.4157,0
2013-08-28 0:42:53,68.9655,0
2013-08-28 0:42:54,66.6667,0
2013-08-28 0:42:55,60,0
2013-08-28 0:42:56,65.9341,0
2013-08-28 0:42:57,62.5,0
2013-08-28 0:42:58,59.4059,0
2013-08-28 0:42:59,60,0
2013-08-28 0:43:0,63.8298,0
2013-08-28 0:43:1,60.6061,0
2013-08-28 0:43:2,54.0541,0
2013-08-28 0:43:3,60,0
2013-08-28 0:43:4,57.6923,0
2013-08-28 0:43:5,55.5556,0
2013-08-28 0:43:6,59.4059,0
2013-08-28 0:43:7,54.5455,0
2013-08-28 0:43:8,55.5556,0
2013-08-28 0:43:9,60,0
2013-08-28 0:43:10,64.5161,0
2013-08-28 0:43:11,70.5882,0
2013-08-28 0:43:16,72.2892,1
2013-08-28 0:43:17,70.5882,0
2013-08-28 0:43:18,73.1707,0
2013-08-28 0:43:18,74.0741,0
2013-08-28 0:43:19,72.2892,0
2013-08-28 0:43:21,65.9341,1
2013-08-28 0:43:23,54.0541,1
2013-08-28 0:43:24,55.0459,0
2013-08-28 0:43:25,51.7241,0
2013-08-28 0:43:26,57.1429,0
2013-08-28 0:43:28,58.8235,0
2013-08-28 0:43:29,55.5556,0
2013-08-28 0:43:30,60.6061,0
2013-08-28 0:43:31,63.1579,0
2013-08-28 0:43:32,68.9655,0
2013-08-28 0:43:35,65.9341,1
2013-08-28 0:43:35,60.6061,0
2013-08-28 0:43:36,60.6061,0
2013-08-28 0:43:37,62.5,0
2013-08-28 0:43:38,57.6923,0
2013-08-28 0:43:39,54.5455,0
2013-08-28 0:43:41,57.1429,0
2013-08-28 0:43:42,60,0
2013-08-28 0:43:43,53.0973,0
2013-08-28 0:43:44,57.6923,0
2013-08-28 0:43:45,62.5,0
2013-08-28 0:43:46,59.4059,0
2013-08-28 0:43:47,58.2524,0
2013-08-28 0:43:48,57.6923,0
2013-08-28 0:43:49,54.0541,0
2013-08-28 0:43:50,51.7241,0
2013-08-28 0:43:51,60,0
2013-08-28 0:43:54,63.8298,1
2013-08-28 0:43:55,65.9341,0
2013-08-28 0:43:56,68.9655,0
2013-08-28 0:43:56,64.5161,0
2013-08-28 0:43:57,68.9655,0
2013-08-28 0:43:58,64.5161,0
2013-08-28 0:43:59,61.8557,0
2013-08-28 0:44:0,63.8298,0
2013-08-28 0:44:1,57.6923,0
2013-08-28 0:44:2,62.5,0
2013-08-28 0:44:3,58.2524,0
2013-08-28 0:44:4,55.5556,0
2013-08-28 0:44:5,57.6923,0
2013-08-28 0:44:6,52.1739,0
2013-08-28 0:44:7,54.0541,0
2013-08-28 0:44:9,61.2245,0
2013-08-28 0:44:9,61.2245,0
2013-08-28 0:44:10,53.5714,0
2013-08-28 0:44:12,59.4059,0
2013-08-28 0:44:13,63.8298,0
2013-08-28 0:44:14,55.0459,0
2013-08-28 0:44:15,58.8235,0
2013-08-28 0:44:16,60,0
2013-08-28 0:44:17,58.8235,0
2013-08-28 0:44:18,55.0459,0
2013-08-28 0:44:19,60,0
2013-08-28 0:44:20,54.5455,0
2013-08-28 0:44:21,53.0973,0
2013-08-28 0:44:22,58.2524,0
2013-08-28 0:44:23,53.5714,0
2013-08-28 0:44:24,54.0541,0
2013-08-28 0:44:25,60.6061,0
2013-08-28 0:44:26,63.8298,0
2013-08-28 0:44:28,58.8235,1
2013-08-28 0:44:29,60.6061,0
2013-08-28 0:44:30,54.5455,0
2013-08-28 0:44:31,57.6923,0
2013-08-28 0:44:38,77.9221,1
2013-08-28 0:44:39,75.9494,0
2013-08-28 0:44:39,80,0
2013-08-28 0:44:40,78.9474,0
2013-08-28 0:44:41,77.9221,0
2013-08-28 0:44:42,75.9494,0
2013-08-28 0:44:42,75.9494,0
2013-08-28 0:44:43,71.4286,0
2013-08-28 0:44:44,65.9341,0
2013-08-28 0:44:45,68.9655,0
2013-08-28 0:44:46,64.5161,0
2013-08-28 0:44:47,61.8557,0
2013-08-28 0:44:48,67.4157,0
2013-08-28 0:44:49,65.9341,0
2013-08-28 0:44:50,64.5161,0
2013-08-28 0:44:51,66.6667,0
2013-08-28 0:44:51,65.9341,0
2013-08-28 0:44:52,66.6667,0
2013-08-28 0:44:53,65.2174,0
2013-08-28 0:44:54,68.1818,0
2013-08-28 0:44:55,71.4286,0
2013-08-28 0:44:56,72.2892,0
2013-08-28 0:44:57,70.5882,0
2013-08-28 0:44:58,68.1818,0
2013-08-28 0:44:58,71.4286,0
2013-08-28 0:44:59,69.7674,0
2013-08-28 0:45:0,64.5161,0
2013-08-28 0:45:1,63.8298,0
2013-08-28 0:45:2,68.1818,0
2013-08-28 0:45:3,66.6667,0
2013-08-28 0:45:4,60.6061,0
2013-08-28 0:45:5,65.2174,0
2013-08-28 0:45:6,61.2245,0
2013-08-28 0:45:8,55.0459,1
2013-08-28 0:45:9,62.5,0
2013-08-28 0:45:10,55.0459,0
2013-08-28 0:45:11,55.0459,0
2013-08-28 0:45:12,59.4059,0
2013-08-28 0:45:13,53.5714,0
2013-08-28 0:45:14,55.0459,0
2013-08-28 0:45:15,60,0
2013-08-28 0:45:16,55.0459,0
2013-08-28 0:45:17,55.5556,0
2013-08-28 0:45:18,63.1579,0
2013-08-28 0:45:19,57.1429,0
2013-08-28 0:45:20,62.5,0
2013-08-28 0:45:25,75,1
2013-08-28 0:45:25,73.1707,0
2013-08-28 0:45:26,75,0
2013-08-28 0:45:27,76.9231,0
2013-08-28 0:45:28,75,0
2013-08-28 0:45:29,75,0
2013-08-28 0:45:29,72.2892,0
2013-08-28 0:45:30,65.2174,0
2013-08-28 0:45:31,65.9341,0
2013-08-28 0:45:32,63.1579,0
2013-08-28 0:45:35,56.0748,1
2013-08-28 0:45:36,54.5455,0
2013-08-28 0:45:37,56.6038,0
2013-08-28 0:45:38,56.0748,0
2013-08-28 0:45:40,60.6061,0
2013-08-28 0:45:41,63.1579,0
2013-08-28 0:45:41,62.5,0
2013-08-28 0:45:42,61.8557,0
2013-08-28 0:45:43,63.1579,0
2013-08-28 0:45:44,65.2174,0
2013-08-28 0:45:45,65.2174,0
2013-08-28 0:45:46,60.6061,0
2013-08-28 0:45:47,61.8557,0
2013-08-28 0:45:48,58.2524,0
2013-08-28 0:45:49,63.8298,0
2013-08-28 0:45:50,62.5,0
2013-08-28 0:45:51,60,0
2013-08-28 0:45:52,65.2174,0
2013-08-28 0:45:53,68.1818,0
2013-08-28 0:45:54,64.5161,0
2013-08-28 0:45:55,58.8235,0
2013-08-28 0:45:56,65.2174,0
2013-08-28 0:45:57,64.5161,0
2013-08-28 0:45:58,59.4059,0
2013-08-28 0:45:59,55.5556,0
2013-08-28 0:46:0,60,0
2013-08-28 0:46:1,52.6316,0
2013-08-28 0:46:2,56.6038,0
2013-08-28 0:46:3,60,0
2013-08-28 0:46:4,62.5,0
2013-08-28 0:46:5,63.1579,0
2013-08-28 0:46:6,71.4286,0
2013-08-28 0:46:8,72.2892,1
2013-08-28 0:46:8,66.6667,0
2013-08-28 0:46:9,75,0
2013-08-28 0:46:10,75,0
2013-08-28 0:46:11,73.1707,0
2013-08-28 0:46:12,73.1707,0
2013-08-28 0:46:12,73.1707,0
2013-08-28 0:46:13,71.4286,0
2013-08-28 0:46:14,70.5882,0
2013-08-28 0:46:15,67.4157,0
2013-08-28 0:46:16,63.1579,0
2013-08-28 0:46:17,65.2174,0
2013-08-28 0:46:18,59.4059,0
2013-08-28 0:46:19,56.0748,0
2013-08-28 0:46:20,57.6923,0
2013-08-28 0:46:21,54.0541,0
2013-08-28 0:46:22,55.0459,0
2013-08-28 0:46:23,53.0973,0
2013-08-28 0:46:24,52.6316,0
2013-08-28 0:46:25,60,0
2013-08-28 0:46:26,61.2245,0
2013-08-28 0:46:27,56.6038,0
2013-08-28 0:46:28,58.8235,0
2013-08-28 0:46:29,63.8298,0
2013-08-28 0:46:30,65.2174,0
2013-08-28 0:46:31,61.2245,0
2013-08-28 0:46:32,54.5455,0
2013-08-28 0:46:33,60.6061,0
2013-08-28 0:46:34,65.9341,0
2013-08-28 0:46:35,66.6667,0
2013-08-28 0:46:36,58.2524,0
2013-08-28 0:46:37,57.1429,0
2013-08-28 0:46:38,57.1429,0
2013-08-28 0:46:39,60.6061,0
2013-08-28 0:46:40,65.2174,0
2013-08-28 0:46:41,58.2524,0
2013-08-28 0:46:42,55.5556,0
2013-08-28 0:46:43,63.1579,0
2013-08-28 0:46:44,60.6061,0
2013-08-28 0:46:45,54.5455,0
2013-08-28 0:46:46,60,0
2013-08-28 0:46:47,53.0973,0
2013-08-28 0:46:48,55.5556,0
2013-08-28 0:46:50,60.6061,0
2013-08-28 0:46:51,63.1579,0
2013-08-28 0:46:55,75,1
2013-08-28 0:46:56,71.4286,0
2013-08-28 0:46:56,74.0741,0
2013-08-28 0:46:57,75.9494,0
2013-08-28 0:46:58,76.9231,0
2013-08-28 0:46:59,78.9474,0
2013-08-28 0:46:59,75,0
2013-08-28 0:47:0,75,0
2013-08-28 0:47:1,71.4286,0
2013-08-28 0:47:2,74.0741,0
2013-08-28 0:47:3,66.6667,0
2013-08-28 0:47:5,63.8298,1
2013-08-28 0:47:6,65.9341,0
2013-08-28 0:47:7,61.8557,0
2013-08-28 0:47:8,65.2174,0
2013-08-28 0:47:8,61.8557,0
2013-08-28 0:47:9,56.6038,0
2013-08-28 0:47:11,59.4059,0
2013-08-28 0:47:12,63.1579,0
2013-08-28 0:47:12,61.8557,0
2013-08-28 0:47:13,56.6038,0
2013-08-28 0:47:15,59.4059,0
2013-08-28 0:47:16,63.1579,0
2013-08-28 0:47:16,60,0
2013-08-28 0:47:17,55.0459,0
2013-08-28 0:47:19,58.8235,0
2013-08-28 0:47:20,63.8298,0
2013-08-28 0:47:21,61.2245,0
2013-08-28 0:47:21,61.8557,0
2013-08-28 0:47:22,64.5161,0
2013-08-28 0:47:23,63.8298,0
2013-08-28 0:47:26,56.0748,1
2013-08-28 0:47:27,59.4059,0
2013-08-28 0:47:28,58.8235,0
2013-08-28 0:47:29,58.8235,0
2013-08-28 0:47:30,60.6061,0
2013-08-28 0:47:31,58.2524,0
2013-08-28 0:47:32,52.1739,0
2013-08-28 0:47:33,53.5714,0
2013-08-28 0:47:34,48,0
2013-08-28 0:47:36,68.1818,1
2013-08-28 0:47:38,63.1579,1
2013-08-28 0:47:39,62.5,0
2013-08-28 0:47:40,69.7674,0
2013-08-28 0:47:41,70.5882,0
2013-08-28 0:47:42,72.2892,0
2013-08-28 0:47:42,73.1707,0
2013-08-28 0:47:43,73.1707,0
2013-08-28 0:47:44,71.4286,0
2013-08-28 0:47:45,67.4157,0
2013-08-28 0:47:46,63.8298,0
2013-08-28 0:47:48,58.8235,1
2013-08-28 0:47:49,58.2524,0
2013-08-28 0:47:50,55.5556,0
2013-08-28 0:47:51,58.2524,0
2013-08-28 0:47:52,55.5556,0
2013-08-28 0:47:53,56.0748,0
2013-08-28 0:47:54,60,0
2013-08-28 0:47:55,58.2524,0
2013-08-28 0:47:56,55.0459,0
2013-08-28 0:47:57,59.4059,0
2013-08-28 0:47:58,61.8557,0
2013-08-28 0:47:59,61.8557,0
2013-08-28 0:48:0,59.4059,0
2013-08-28 0:48:1,62.5,0
2013-08-28 0:48:2,62.5,0
2013-08-28 0:48:3,54.0541,0
2013-08-28 0:48:4,57.6923,0
2013-08-28 0:48:5,64.5161,0
2013-08-28 0:48:6,64.5161,0
2013-08-28 0:48:7,56.6038,0
2013-08-28 0:48:8,58.8235,0
2013-08-28 0:48:9,60.6061,0
2013-08-28 0:48:10,55.0459,0
2013-08-28 0:48:11,60,0
2013-08-28 0:48:12,56.0748,0
2013-08-28 0:48:13,55.5556,0
2013-08-28 0:48:14,62.5,0
2013-08-28 0:48:15,58.8235,0
2013-08-28 0:48:16,55.5556,0
2013-08-28 0:48:17,63.8298,0
2013-08-28 0:48:22,72.2892,1
2013-08-28 0:48:27,76.9231,1
2013-08-28 0:48:28,75,0
2013-08-28 0:48:29,70.5882,0
2013-08-28 0:48:30,68.1818,0
2013-08-28 0:48:30,63.8298,0
2013-08-28 0:48:32,62.5,1
2013-08-28 0:48:33,61.2245,0
2013-08-28 0:48:34,58.2524,0
2013-08-28 0:48:35,58.8235,0
2013-08-28 0:48:36,61.8557,0
2013-08-28 0:48:37,60,0
2013-08-28 0:48:38,62.5,0
2013-08-28 0:48:39,61.2245,0
2013-08-28 0:48:40,61.2245,0
2013-08-28 0:48:41,60.6061,0
2013-08-28 0:48:42,65.9341,0
2013-08-28 0:48:43,65.9341,0
2013-08-28 0:48:44,62.5,0
2013-08-28 0:48:45,65.9341,0
2013-08-28 0:48:46,68.1818,0
2013-08-28 0:48:47,68.9655,0
2013-08-28 0:48:48,63.1579,0
2013-08-28 0:48:49,65.2174,0
2013-08-28 0:48:50,68.9655,0
2013-08-28 0:48:50,68.1818,0
2013-08-28 0:48:51,61.2245,0
2013-08-28 0:48:52,61.8557,0
2013-08-28 0:48:53,57.1429,0
2013-08-28 0:48:55,54.5455,1
2013-08-28 0:48:57,56.6038,0
2013-08-28 0:48:59,54.5455,1
2013-08-28 0:49:0,61.2245,0
2013-08-28 0:49:1,60.6061,0
2013-08-28 0:49:2,56.0748,0
2013-08-28 0:49:5,67.4157,1
2013-08-28 0:49:6,71.4286,1
2013-08-28 0:49:7,63.8298,0
2013-08-28 0:49:8,68.9655,0
2013-08-28 0:49:9,71.4286,0
2013-08-28 0:49:10,75.9494,0
2013-08-28 0:49:11,73.1707,1
2013-08-28 0:49:12,66.6667,0
2013-08-28 0:49:13,63.8298,0
2013-08-28 0:49:16,57.1429,1
2013-08-28 0:49:17,56.0748,0
2013-08-28 0:49:18,58.8235,0
2013-08-28 0:49:19,63.1579,0
2013-08-28 0:49:20,61.2245,0
2013-08-28 0:49:21,61.2245,0
2013-08-28 0:49:22,65.2174,0
2013-08-28 0:49:23,64.5161,0
2013-08-28 0:49:24,55.5556,0
2013-08-28 0:49:25,60.6061,0
2013-08-28 0:49:26,60,0
2013-08-28 0:49:27,62.5,0
2013-08-28 0:49:28,62.5,0
2013-08-28 0:49:29,64.5161,0
2013-08-28 0:49:30,60.6061,0
2013-08-28 0:49:31,56.6038,0
2013-08-28 0:49:32,60,0
2013-08-28 0:49:33,58.8235,0
2013-08-28 0:49:34,52.1739,0
2013-08-28 0:49:35,54.5455,0
2013-08-28 0:49:36,56.0748,0
2013-08-28 0:49:38,57.6923,0
2013-08-28 0:49:39,56.6038,0
2013-08-28 0:49:40,54.5455,0
2013-08-28 0:49:41,55.5556,0
2013-08-28 0:49:42,61.8557,0
2013-08-28 0:49:43,68.1818,0
2013-08-28 0:49:46,71.4286,1
2013-08-28 0:49:47,68.9655,0
2013-08-28 0:49:48,73.1707,0
2013-08-28 0:49:49,75,0
2013-08-28 0:49:49,73.1707,0
2013-08-28 0:49:50,75,0
2013-08-28 0:49:51,75,0
2013-08-28 0:49:52,71.4286,0
2013-08-28 0:49:53,69.7674,0
2013-08-28 0:49:53,63.1579,0
2013-08-28 0:49:55,63.8298,1
2013-08-28 0:49:56,59.4059,0
2013-08-28 0:49:57,60.6061,0
2013-08-28 0:49:58,64.5161,0
2013-08-28 0:49:59,64.5161,0
2013-08-28 0:50:0,62.5,0
2013-08-28 0:50:1,63.8298,0
2013-08-28 0:50:2,60.6061,0
2013-08-28 0:50:3,59.4059,0
2013-08-28 0:50:4,58.8235,0
2013-08-28 0:50:5,61.2245,0
2013-08-28 0:50:6,62.5,0
2013-08-28 0:50:7,61.8557,0
2013-08-28 0:50:8,64.5161,0
2013-08-28 0:50:9,64.5161,0
2013-08-28 0:50:10,58.8235,0
2013-08-28 0:50:11,61.8557,0
2013-08-28 0:50:12,65.9341,0
2013-08-28 0:50:13,62.5,0
2013-08-28 0:50:14,58.2524,0
2013-08-28 0:50:15,62.5,0
2013-08-28 0:50:16,60.6061,0
2013-08-28 0:50:17,65.9341,0
2013-08-28 0:50:20,54.5455,1
2013-08-28 0:50:22,71.4286,1
2013-08-28 0:50:23,70.5882,0
2013-08-28 0:50:24,71.4286,0
2013-08-28 0:50:25,68.9655,0
2013-08-28 0:50:26,65.9341,0
2013-08-28 0:50:27,64.5161,0
2013-08-28 0:50:28,57.6923,0
2013-08-28 0:50:30,58.8235,1
2013-08-28 0:50:32,53.5714,1
2013-08-28 0:50:33,57.1429,0
2013-08-28 0:50:34,55.0459,0
2013-08-28 0:50:35,56.6038,0
2013-08-28 0:50:36,61.8557,0
2013-08-28 0:50:37,58.2524,0
2013-08-28 0:50:38,61.8557,0
2013-08-28 0:50:39,59.4059,0
2013-08-28 0:50:40,58.2524,0
2013-08-28 0:50:41,61.2245,0
2013-08-28 0:50:42,58.8235,0
2013-08-28 0:50:43,55.0459,0
2013-08-28 0:50:44,60,0
2013-08-28 0:50:45,57.1429,0
2013-08-28 0:50:46,55.0459,0
2013-08-28 0:50:47,57.6923,0
2013-08-28 0:50:48,51.7241,0
2013-08-28 0:50:50,52.1739,0
2013-08-28 0:50:51,54.5455,0
2013-08-28 0:50:52,48.3871,0
2013-08-28 0:50:53,52.1739,0
2013-08-28 0:51:3,82.1918,1
2013-08-28 0:51:4,81.0811,0
2013-08-28 0:51:4,73.1707,0
2013-08-28 0:51:5,70.5882,0
2013-08-28 0:51:6,71.4286,0
2013-08-28 0:51:7,68.9655,0
2013-08-28 0:51:9,65.9341,1
2013-08-28 0:51:10,65.9341,0
2013-08-28 0:51:11,61.8557,0
2013-08-28 0:51:11,61.2245,0
2013-08-28 0:51:12,66.6667,0
2013-08-28 0:51:13,63.8298,0
2013-08-28 0:51:14,63.1579,0
2013-08-28 0:51:15,67.4157,0
2013-08-28 0:51:16,65.9341,0
2013-08-28 0:51:17,61.2245,0
2013-08-28 0:51:18,62.5,0
2013-08-28 0:51:19,66.6667,0
2013-08-28 0:51:20,62.5,0
2013-08-28 0:51:21,59.4059,0
2013-08-28 0:51:22,61.2245,0
2013-08-28 0:51:23,65.2174,0
2013-08-28 0:51:24,64.5161,0
2013-08-28 0:51:25,59.4059,0
2013-08-28 0:51:26,61.8557,0
2013-08-28 0:51:27,61.2245,0
2013-08-28 0:51:28,53.5714,0
2013-08-28 0:51:29,60,0
2013-08-28 0:51:30,65.2174,0
2013-08-28 0:51:31,64.5161,0
2013-08-28 0:51:32,57.1429,0
2013-08-28 0:51:33,60.6061,0
2013-08-28 0:51:34,55.5556,0
2013-08-28 0:51:35,52.1739,0
2013-08-28 0:51:36,55.5556,0
2013-08-28 0:51:37,59.4059,0
2013-08-28 0:51:38,52.1739,0
2013-08-28 0:51:39,50.8475,0
2013-08-28 0:51:40,60,0
2013-08-28 0:51:41,68.9655,0
2013-08-28 0:51:48,75.9494,1
2013-08-28 0:51:49,74.0741,0
2013-08-28 0:51:50,72.2892,0
2013-08-28 0:51:51,68.9655,0
2013-08-28 0:51:52,65.2174,0
2013-08-28 0:51:56,55.5556,1
2013-08-28 0:51:57,52.1739,0
2013-08-28 0:51:58,51.2821,0
2013-08-28 0:51:59,56.0748,0
2013-08-28 0:52:1,55.0459,0
2013-08-28 0:52:2,56.0748,0
2013-08-28 0:52:3,61.8557,0
2013-08-28 0:52:4,60.6061,0
2013-08-28 0:52:5,58.2524,0
2013-08-28 0:52:6,62.5,0
2013-08-28 0:52:7,61.2245,0
2013-08-28 0:52:8,57.6923,0
2013-08-28 0:52:9,61.2245,0
2013-08-28 0:52:10,58.8235,0
2013-08-28 0:52:11,54.5455,0
2013-08-28 0:52:12,57.1429,0
2013-08-28 0:52:13,63.1579,0
2013-08-28 0:52:14,61.8557,0
2013-08-28 0:52:15,53.0973,0
2013-08-28 0:52:16,57.6923,0
2013-08-28 0:52:17,60.6061,0
2013-08-28 0:52:18,54.0541,0
2013-08-28 0:52:19,54.5455,0
2013-08-28 0:52:20,60,0
2013-08-28 0:52:21,54.5455,0
2013-08-28 0:52:22,53.0973,0
2013-08-28 0:52:23,54.5455,0
2013-08-28 0:52:24,52.6316,0
2013-08-28 0:52:26,55.0459,0
2013-08-28 0:52:27,61.8557,0
2013-08-28 0:52:28,61.8557,0
2013-08-28 0:52:29,61.2245,0
2013-08-28 0:52:31,69.7674,1
2013-08-28 0:52:32,68.9655,0
2013-08-28 0:52:33,71.4286,0
2013-08-28 0:52:34,71.4286,0
2013-08-28 0:52:35,74.0741,0
2013-08-28 0:52:36,75,1
2013-08-28 0:52:37,72.2892,0
2013-08-28 0:52:38,72.2892,0
2013-08-28 0:52:39,67.4157,0
2013-08-28 0:52:41,59.4059,1
2013-08-28 0:52:42,58.8235,0
2013-08-28 0:52:43,58.2524,0
2013-08-28 0:52:44,63.8298,0
2013-08-28 0:52:45,61.8557,0
2013-08-28 0:52:46,57.6923,0
2013-08-28 0:52:47,60,0
2013-08-28 0:52:48,62.5,0
2013-08-28 0:52:49,58.8235,0
2013-08-28 0:52:50,59.4059,0
2013-08-28 0:52:51,65.2174,0
2013-08-28 0:52:52,61.8557,0
2013-08-28 0:52:53,57.1429,0
2013-08-28 0:52:54,61.8557,0
2013-08-28 0:52:55,60.6061,0
2013-08-28 0:52:56,56.0748,0
2013-08-28 0:52:57,60.6061,0
2013-08-28 0:52:58,58.8235,0
2013-08-28 0:52:59,54.5455,0
2013-08-28 0:53:0,58.8235,0
2013-08-28 0:53:1,60.6061,0
2013-08-28 0:53:2,51.7241,0
2013-08-28 0:53:3,56.6038,0
2013-08-28 0:53:4,61.8557,0
2013-08-28 0:53:5,57.6923,0
2013-08-28 0:53:6,55.5556,0
2013-08-28 0:53:7,59.4059,0
2013-08-28 0:53:8,57.6923,0
2013-08-28 0:53:9,54.5455,0
2013-08-28 0:53:10,57.1429,0
2013-08-28 0:53:11,49.5868,0
2013-08-28 0:53:12,59.4059,0
2013-08-28 0:53:14,66.6667,0
2013-08-28 0:53:15,70.5882,1
2013-08-28 0:53:18,71.4286,1
2013-08-28 0:53:19,70.5882,0
2013-08-28 0:53:21,73.1707,1
2013-08-28 0:53:22,75,0
2013-08-28 0:53:23,66.6667,0
2013-08-28 0:53:25,59.4059,1
2013-08-28 0:53:27,55.0459,1
2013-08-28 0:53:28,60,0
2013-08-28 0:53:29,59.4059,0
2013-08-28 0:53:30,60,0
2013-08-28 0:53:31,65.2174,0
2013-08-28 0:53:32,60,0
2013-08-28 0:53:33,60,0
2013-08-28 0:53:34,60.6061,0
2013-08-28 0:53:35,65.2174,0
2013-08-28 0:53:36,62.5,0
2013-08-28 0:53:37,57.1429,0
2013-08-28 0:53:38,59.4059,0
2013-08-28 0:53:39,62.5,0
2013-08-28 0:53:40,60.6061,0
2013-08-28 0:53:41,55.5556,0
2013-08-28 0:53:42,60,0
2013-08-28 0:53:43,60.6061,0
2013-08-28 0:53:44,51.2821,0
2013-08-28 0:53:45,55.0459,0
2013-08-28 0:53:46,61.8557,0
2013-08-28 0:53:47,60.6061,0
2013-08-28 0:53:48,53.5714,0
2013-08-28 0:53:49,55.5556,0
2013-08-28 0:53:50,60,0
2013-08-28 0:53:51,53.0973,0
2013-08-28 0:53:53,58.8235,0
2013-08-28 0:53:54,69.7674,1
2013-08-28 0:53:57,60,1
2013-08-28 0:53:58,65.9341,0
2013-08-28 0:53:59,68.1818,0
2013-08-28 0:54:0,69.7674,0
2013-08-28 0:54:1,68.9655,0
2013-08-28 0:54:2,71.4286,0
2013-08-28 0:54:4,63.8298,1
2013-08-28 0:54:5,65.2174,0
2013-08-28 0:54:6,62.5,0
2013-08-28 0:54:7,64.5161,0
2013-08-28 0:54:7,63.8298,0
2013-08-28 0:54:8,62.5,0
2013-08-28 0:54:9,65.9341,0
2013-08-28 0:54:10,65.2174,0
2013-08-28 0:54:11,62.5,0
2013-08-28 0:54:12,63.8298,0
2013-08-28 0:54:13,68.1818,0
2013-08-28 0:54:14,64.5161,0
2013-08-28 0:54:15,60,0
2013-08-28 0:54:16,63.1579,0
2013-08-28 0:54:17,55.5556,0
2013-08-28 0:54:18,59.4059,0
2013-08-28 0:54:19,65.2174,0
2013-08-28 0:54:20,64.5161,0
2013-08-28 0:54:21,59.4059,0
2013-08-28 0:54:22,57.1429,0
2013-08-28 0:54:23,60,0
2013-08-28 0:54:24,53.0973,0
2013-08-28 0:54:25,51.7241,0
2013-08-28 0:54:27,63.1579,1
2013-08-28 0:54:28,61.2245,0
2013-08-28 0:54:29,65.9341,0
2013-08-28 0:54:30,67.4157,0
2013-08-28 0:54:31,67.4157,0
2013-08-28 0:54:32,70.5882,0
2013-08-28 0:54:33,72.2892,0
2013-08-28 0:54:33,74.0741,0
2013-08-28 0:54:34,75.9494,0
2013-08-28 0:54:38,68.9655,1
2013-08-28 0:54:38,63.8298,0
2013-08-28 0:54:39,59.4059,0
2013-08-28 0:54:40,61.2245,0
2013-08-28 0:54:41,59.4059,0
2013-08-28 0:54:42,59.4059,0
2013-08-28 0:54:43,60,0
2013-08-28 0:54:44,58.8235,0
2013-08-28 0:54:45,58.2524,0
2013-08-28 0:54:46,63.1579,0
2013-08-28 0:54:47,63.1579,0
2013-08-28 0:54:48,58.8235,0
2013-08-28 0:54:49,61.8557,0
2013-08-28 0:54:50,66.6667,0
2013-08-28 0:54:51,64.5161,0
2013-08-28 0:54:52,57.6923,0
2013-08-28 0:54:53,60.6061,0
2013-08-28 0:54:54,63.1579,0
2013-08-28 0:54:55,65.2174,0
2013-08-28 0:54:56,58.2524,0
2013-08-28 0:54:57,55.5556,0
2013-08-28 0:54:58,58.2524,0
2013-08-28 0:54:59,54.5455,0
2013-08-28 0:55:0,58.2524,0
2013-08-28 0:55:1,61.8557,0
2013-08-28 0:55:2,62.5,0
2013-08-28 0:55:3,54.0541,0
2013-08-28 0:55:4,57.6923,0
2013-08-28 0:55:5,55.0459,0
2013-08-28 0:55:7,61.2245,0
2013-08-28 0:55:7,69.7674,0
2013-08-28 0:55:11,74.0741,1
2013-08-28 0:55:12,75.9494,0
2013-08-28 0:55:17,83.3333,1
2013-08-28 0:55:17,84.507,0
2013-08-28 0:55:18,80,0
2013-08-28 0:55:20,70.5882,1
2013-08-28 0:55:21,69.7674,0
2013-08-28 0:55:22,63.8298,1
2013-08-28 0:55:25,59.4059,1
2013-08-28 0:55:26,59.4059,0
2013-08-28 0:55:27,63.8298,0
2013-08-28 0:55:28,62.5,0
2013-08-28 0:55:29,60.6061,0
2013-08-28 0:55:30,64.5161,0
2013-08-28 0:55:31,63.8298,0
2013-08-28 0:55:32,61.8557,0
2013-08-28 0:55:33,68.1818,0
2013-08-28 0:55:34,66.6667,0
2013-08-28 0:55:35,61.8557,0
2013-08-28 0:55:36,65.9341,0
2013-08-28 0:55:37,66.6667,0
2013-08-28 0:55:38,58.8235,0
2013-08-28 0:55:39,56.0748,0
2013-08-28 0:55:40,61.2245,0
2013-08-28 0:55:41,55.5556,0
2013-08-28 0:55:42,55.5556,0
2013-08-28 0:55:43,57.1429,0
2013-08-28 0:55:44,53.0973,0
2013-08-28 0:55:45,53.0973,0
2013-08-28 0:55:46,54.5455,0
2013-08-28 0:55:47,50.4202,0
2013-08-28 0:55:49,56.6038,0
2013-08-28 0:55:50,54.0541,0
2013-08-28 0:55:51,51.2821,0
2013-08-28 0:55:52,58.2524,0
2013-08-28 0:55:53,52.6316,0
2013-08-28 0:55:58,72.2892,1
2013-08-28 0:55:59,74.0741,1
2013-08-28 0:56:0,72.2892,0
2013-08-28 0:56:1,71.4286,0
2013-08-28 0:56:2,68.9655,0
2013-08-28 0:56:3,64.5161,0
2013-08-28 0:56:3,63.1579,0
2013-08-28 0:56:4,55.0459,0
2013-08-28 0:56:5,57.1429,0
2013-08-28 0:56:8,55.5556,1
2013-08-28 0:56:9,56.6038,0
2013-08-28 0:56:10,54.0541,0
2013-08-28 0:56:11,60,0
2013-08-28 0:56:12,56.6038,0
2013-08-28 0:56:13,58.2524,0
2013-08-28 0:56:14,63.8298,0
2013-08-28 0:56:15,61.2245,0
2013-08-28 0:56:16,57.1429,0
2013-08-28 0:56:17,60,0
2013-08-28 0:56:18,58.8235,0
2013-08-28 0:56:19,56.0748,0
2013-08-28 0:56:20,60.6061,0
2013-08-28 0:56:21,57.6923,0
2013-08-28 0:56:22,52.1739,0
2013-08-28 0:56:23,55.0459,0
2013-08-28 0:56:24,56.0748,0
2013-08-28 0:56:25,56.0748,0
2013-08-28 0:56:27,57.1429,0
2013-08-28 0:56:28,63.8298,0
2013-08-28 0:56:28,63.8298,0
2013-08-28 0:56:29,56.6038,0
2013-08-28 0:56:30,54.5455,0
2013-08-28 0:56:32,50,0
2013-08-28 0:56:33,52.6316,0
2013-08-28 0:56:34,58.8235,0
2013-08-28 0:56:35,53.0973,0
2013-08-28 0:56:40,73.1707,1
2013-08-28 0:56:41,74.0741,0
2013-08-28 0:56:43,75.9494,1
2013-08-28 0:56:43,73.1707,0
2013-08-28 0:56:44,75.9494,0
2013-08-28 0:56:45,75.9494,0
2013-08-28 0:56:47,64.5161,1
2013-08-28 0:56:48,64.5161,0
2013-08-28 0:56:50,57.1429,1
2013-08-28 0:56:51,59.4059,0
2013-08-28 0:56:52,54.5455,0
2013-08-28 0:56:53,55.5556,0
2013-08-28 0:56:54,60,0
2013-08-28 0:56:55,59.4059,0
2013-08-28 0:56:56,57.6923,0
2013-08-28 0:56:57,60,0
2013-08-28 0:56:58,65.2174,0
2013-08-28 0:56:59,66.6667,0
2013-08-28 0:57:0,60.6061,0
2013-08-28 0:57:1,63.8298,0
2013-08-28 0:57:2,65.2174,0
2013-08-28 0:57:3,62.5,0
2013-08-28 0:57:4,59.4059,0
2013-08-28 0:57:5,63.8298,0
2013-08-28 0:57:6,60,0
2013-08-28 0:57:7,53.5714,0
2013-08-28 0:57:8,58.2524,0
2013-08-28 0:57:9,56.6038,0
2013-08-28 0:57:10,51.7241,0
2013-08-28 0:57:11,57.1429,0
2013-08-28 0:57:12,62.5,0
2013-08-28 0:57:13,52.6316,0
2013-08-28 0:57:14,53.5714,0
2013-08-28 0:57:15,56.6038,0
2013-08-28 0:57:16,52.6316,0
2013-08-28 0:57:17,50.4202,0
2013-08-28 0:57:19,54.0541,0
2013-08-28 0:57:20,53.5714,0
2013-08-28 0:57:21,56.0748,0
2013-08-28 0:57:22,65.9341,0
2013-08-28 0:57:23,67.4157,0
2013-08-28 0:57:25,71.4286,1
2013-08-28 0:57:29,75,1
2013-08-28 0:57:30,75.9494,1
2013-08-28 0:57:31,75,0
2013-08-28 0:57:32,74.0741,0
2013-08-28 0:57:33,67.4157,0
2013-08-28 0:57:34,68.9655,0
2013-08-28 0:57:34,63.8298,0
2013-08-28 0:57:35,62.5,0
2013-08-28 0:57:36,63.1579,0
2013-08-28 0:57:37,58.8235,0
2013-08-28 0:57:38,57.6923,0
2013-08-28 0:57:39,63.1579,0
2013-08-28 0:57:40,59.4059,0
2013-08-28 0:57:41,57.6923,0
2013-08-28 0:57:42,60.6061,0
2013-08-28 0:57:43,60,0
2013-08-28 0:57:44,55.5556,0
2013-08-28 0:57:45,57.6923,0
2013-08-28 0:57:46,59.4059,0
2013-08-28 0:57:47,58.2524,0
2013-08-28 0:57:49,58.2524,0
2013-08-28 0:57:50,63.1579,0
2013-08-28 0:57:50,61.2245,0
2013-08-28 0:57:51,53.5714,0
2013-08-28 0:57:53,61.8557,0
2013-08-28 0:57:54,63.8298,0
2013-08-28 0:57:54,63.8298,0
2013-08-28 0:57:55,57.6923,0
2013-08-28 0:57:56,63.1579,0
2013-08-28 0:57:57,56.0748,0
2013-08-28 0:57:58,54.0541,0
2013-08-28 0:58:0,58.8235,0
2013-08-28 0:58:1,57.6923,0
2013-08-28 0:58:2,55.5556,0
2013-08-28 0:58:3,59.4059,0
2013-08-28 0:58:4,60,0
2013-08-28 0:58:7,52.1739,1
2013-08-28 0:58:8,55.0459,0
2013-08-28 0:58:9,58.8235,0
2013-08-28 0:58:10,60.6061,0
2013-08-28 0:58:13,65.9341,1
2013-08-28 0:58:14,64.5161,0
2013-08-28 0:58:15,65.2174,0
2013-08-28 0:58:16,63.8298,0
2013-08-28 0:58:17,66.6667,0
2013-08-28 0:58:17,65.9341,0
2013-08-28 0:58:18,61.2245,0
2013-08-28 0:58:19,58.2524,0
2013-08-28 0:58:20,57.6923,0
2013-08-28 0:58:21,57.1429,0
2013-08-28 0:58:23,61.2245,0
2013-08-28 0:58:23,63.1579,0
2013-08-28 0:58:24,57.6923,0
2013-08-28 0:58:25,58.8235,0
2013-08-28 0:58:26,63.1579,0
2013-08-28 0:58:27,58.2524,0
2013-08-28 0:58:28,60,0
2013-08-28 0:58:29,60,0
2013-08-28 0:58:30,55.0459,0
2013-08-28 0:58:32,56.6038,0
2013-08-28 0:58:33,60.6061,0
2013-08-28 0:58:34,59.4059,0
2013-08-28 0:58:35,60,0
2013-08-28 0:58:36,61.8557,0
2013-08-28 0:58:38,55.0459,1
2013-08-28 0:58:39,60.6061,0
2013-08-28 0:58:40,63.8298,0
2013-08-28 0:58:42,68.9655,1
2013-08-28 0:58:45,69.7674,1
2013-08-28 0:58:46,72.2892,0
2013-08-28 0:58:47,70.5882,0
2013-08-28 0:58:48,73.1707,0
2013-08-28 0:58:49,73.1707,0
2013-08-28 0:58:50,70.5882,0
2013-08-28 0:58:50,64.5161,0
2013-08-28 0:58:51,63.8298,0
2013-08-28 0:58:52,67.4157,0
2013-08-28 0:58:53,62.5,0
2013-08-28 0:58:54,57.6923,0
2013-08-28 0:58:55,62.5,0
2013-08-28 0:58:56,58.2524,0
2013-08-28 0:58:57,55.0459,0
2013-08-28 0:58:58,64.5161,0
2013-08-28 0:58:59,64.5161,0
2013-08-28 0:59:0,55.0459,0
2013-08-28 0:59:1,57.6923,0
2013-08-28 0:59:2,59.4059,0
2013-08-28 0:59:3,58.2524,0
2013-08-28 0:59:4,63.1579,0
2013-08-28 0:59:5,58.8235,0
2013-08-28 0:59:6,59.4059,0
2013-08-28 0:59:7,61.2245,0
2013-08-28 0:59:8,62.5,0
2013-08-28 0:59:9,57.6923,0
2013-08-28 0:59:10,57.1429,0
2013-08-28 0:59:11,63.8298,0
2013-08-28 0:59:12,67.4157,0
2013-08-28 0:59:15,73.1707,1
2013-08-28 0:59:17,61.2245,1
2013-08-28 0:59:18,68.1818,0
2013-08-28 0:59:19,74.0741,0
2013-08-28 0:59:19,75.9494,0
2013-08-28 0:59:20,73.1707,0
2013-08-28 0:59:21,71.4286,0
2013-08-28 0:59:22,72.2892,0
2013-08-28 0:59:23,68.1818,0
2013-08-28 0:59:25,62.5,1
2013-08-28 0:59:27,54.5455,1
2013-08-28 0:59:28,55.0459,0
2013-08-28 0:59:29,53.5714,0
2013-08-28 0:59:30,58.8235,0
2013-08-28 0:59:31,56.0748,0
2013-08-28 0:59:32,57.1429,0
2013-08-28 0:59:33,63.8298,0
2013-08-28 0:59:34,60.6061,0
2013-08-28 0:59:35,58.2524,0
2013-08-28 0:59:36,65.2174,0
2013-08-28 0:59:37,63.1579,0
2013-08-28 0:59:38,59.4059,0
2013-08-28 0:59:39,62.5,0
2013-08-28 0:59:40,60,0
2013-08-28 0:59:41,59.4059,0
2013-08-28 0:59:42,60.6061,0
2013-08-28 0:59:43,56.0748,0
2013-08-28 0:59:44,54.0541,0
2013-08-28 0:59:45,56.0748,0
2013-08-28 0:59:46,54.0541,0
2013-08-28 0:59:47,58.2524,0
2013-08-28 0:59:48,54.5455,0
2013-08-28 0:59:49,52.1739,0
2013-08-28 0:59:51,50.8475,0
2013-08-28 0:59:52,50,0
2013-08-28 0:59:53,53.5714,0
2013-08-28 0:59:54,57.6923,0
2013-08-28 0:59:55,60.6061,0
2013-08-28 0:59:59,71.4286,1
2013-08-28 1:0:7,86.9565,1
2013-08-28 1:0:9,70.5882,1
2013-08-28 1:0:15,60.6061,1
2013-08-28 1:0:16,62.5,0
2013-08-28 1:0:17,64.5161,0
2013-08-28 1:0:18,63.1579,0
2013-08-28 1:0:19,59.4059,0
2013-08-28 1:0:20,61.2245,0
2013-08-28 1:0:21,63.8298,0
2013-08-28 1:0:22,60,0
2013-08-28 1:0:23,56.0748,0
2013-08-28 1:0:24,61.2245,0
2013-08-28 1:0:25,59.4059,0
2013-08-28 1:0:26,57.6923,0
2013-08-28 1:0:27,62.5,0
2013-08-28 1:0:28,60,0
2013-08-28 1:0:29,54.0541,0
2013-08-28 1:0:30,58.2524,0
2013-08-28 1:0:31,52.6316,0
2013-08-28 1:0:32,56.0748,0
2013-08-28 1:0:33,58.8235,0
2013-08-28 1:0:34,54.0541,0
2013-08-28 1:0:35,57.1429,0
2013-08-28 1:0:36,60,0
2013-08-28 1:0:37,57.1429,0
2013-08-28 1:0:38,56.0748,0
2013-08-28 1:0:39,60.6061,0
2013-08-28 1:0:40,54.0541,0
2013-08-28 1:0:41,50.4202,0
2013-08-28 1:0:43,52.1739,0
2013-08-28 1:0:44,52.1739,0
2013-08-28 1:0:45,54.5455,0
2013-08-28 1:0:46,63.1579,0
2013-08-28 1:0:49,70.5882,1
2013-08-28 1:0:50,73.1707,0
2013-08-28 1:0:51,72.2892,0
2013-08-28 1:0:52,75,0
2013-08-28 1:0:53,75.9494,0
2013-08-28 1:0:53,75,0
2013-08-28 1:0:54,73.1707,0
2013-08-28 1:0:55,73.1707,0
2013-08-28 1:0:56,71.4286,0
2013-08-28 1:0:57,61.8557,0
2013-08-28 1:0:58,63.8298,0
2013-08-28 1:1:1,58.2524,1
2013-08-28 1:1:2,54.5455,0
2013-08-28 1:1:3,57.6923,0
2013-08-28 1:1:4,60.6061,0
2013-08-28 1:1:5,58.2524,0
2013-08-28 1:1:6,58.2524,0
2013-08-28 1:1:7,63.1579,0
2013-08-28 1:1:8,61.8557,0
2013-08-28 1:1:9,58.2524,0
2013-08-28 1:1:10,64.5161,0
2013-08-28 1:1:11,65.2174,0
2013-08-28 1:1:12,57.6923,0
2013-08-28 1:1:13,64.5161,0
2013-08-28 1:1:14,58.8235,0
2013-08-28 1:1:15,53.5714,0
2013-08-28 1:1:16,58.2524,0
2013-08-28 1:1:17,61.8557,0
2013-08-28 1:1:18,52.6316,0
2013-08-28 1:1:19,57.6923,0
2013-08-28 1:1:20,61.8557,0
2013-08-28 1:1:21,52.6316,0
2013-08-28 1:1:22,50.8475,0
2013-08-28 1:1:24,53.0973,0
2013-08-28 1:1:25,50.4202,0
2013-08-28 1:1:26,56.6038,0
2013-08-28 1:1:27,63.8298,0
2013-08-28 1:1:28,55.0459,0
2013-08-28 1:1:35,75.9494,1
2013-08-28 1:1:35,72.2892,0
2013-08-28 1:1:36,71.4286,0
2013-08-28 1:1:37,71.4286,0
2013-08-28 1:1:38,65.2174,0
2013-08-28 1:1:39,68.1818,0
2013-08-28 1:1:41,57.1429,1
2013-08-28 1:1:42,59.4059,0
2013-08-28 1:1:43,55.0459,0
2013-08-28 1:1:44,55.5556,0
2013-08-28 1:1:45,60,0
2013-08-28 1:1:46,61.2245,0
2013-08-28 1:1:47,59.4059,0
2013-08-28 1:1:48,63.1579,0
2013-08-28 1:1:49,58.2524,0
2013-08-28 1:1:50,55.0459,0
2013-08-28 1:1:51,57.1429,0
2013-08-28 1:1:52,54.5455,0
2013-08-28 1:1:53,56.6038,0
2013-08-28 1:1:54,58.2524,0
2013-08-28 1:1:55,53.0973,0
2013-08-28 1:1:56,53.0973,0
2013-08-28 1:1:57,56.6038,0
2013-08-28 1:1:59,52.6316,0
2013-08-28 1:2:0,50,0
2013-08-28 1:2:1,55.5556,0
2013-08-28 1:2:2,54.0541,0
2013-08-28 1:2:3,53.5714,0
2013-08-28 1:2:4,57.6923,0
2013-08-28 1:2:5,52.6316,0
2013-08-28 1:2:6,53.0973,0
2013-08-28 1:2:8,55.0459,0
2013-08-28 1:2:9,51.7241,0
2013-08-28 1:2:10,49.5868,0
2013-08-28 1:2:11,51.7241,0
2013-08-28 1:2:12,54.5455,0
2013-08-28 1:2:13,53.5714,0
2013-08-28 1:2:14,52.1739,0
2013-08-28 1:2:16,54.0541,0
2013-08-28 1:2:17,61.8557,0
2013-08-28 1:2:24,68.1818,1
2013-08-28 1:2:25,65.2174,0
2013-08-28 1:2:25,70.5882,0
2013-08-28 1:2:26,69.7674,0
2013-08-28 1:2:27,66.6667,0
2013-08-28 1:2:28,63.8298,0
2013-08-28 1:2:29,60.6061,0
2013-08-28 1:2:31,55.0459,1
2013-08-28 1:2:32,58.8235,0
2013-08-28 1:2:33,57.1429,0
2013-08-28 1:2:34,56.6038,0
2013-08-28 1:2:35,63.1579,0
2013-08-28 1:2:36,58.2524,0
2013-08-28 1:2:37,60,0
2013-08-28 1:2:38,60.6061,0
2013-08-28 1:2:39,58.8235,0
2013-08-28 1:2:40,62.5,0
2013-08-28 1:2:41,66.6667,0
2013-08-28 1:2:42,63.1579,0
2013-08-28 1:2:43,60.6061,0
2013-08-28 1:2:44,63.8298,0
2013-08-28 1:2:45,56.6038,0
2013-08-28 1:2:46,58.2524,0
2013-08-28 1:2:47,60.6061,0
2013-08-28 1:2:48,57.1429,0
2013-08-28 1:2:49,56.0748,0
2013-08-28 1:2:50,59.4059,0
2013-08-28 1:2:51,56.6038,0
2013-08-28 1:2:52,54.0541,0
2013-08-28 1:2:53,59.4059,0
2013-08-28 1:2:54,56.6038,0
2013-08-28 1:2:56,53.0973,0
2013-08-28 1:2:57,54.5455,0
2013-08-28 1:2:58,54.5455,0
2013-08-28 1:2:59,54.5455,0
2013-08-28 1:3:0,61.2245,0
2013-08-28 1:3:1,65.2174,0
2013-08-28 1:3:4,60.6061,1
2013-08-28 1:3:5,68.1818,0
2013-08-28 1:3:6,72.2892,0
2013-08-28 1:3:7,73.1707,0
2013-08-28 1:3:8,73.1707,0
2013-08-28 1:3:9,72.2892,0
2013-08-28 1:3:10,69.7674,0
2013-08-28 1:3:11,68.1818,0
2013-08-28 1:3:11,58.8235,0
2013-08-28 1:3:14,57.6923,1
2013-08-28 1:3:15,55.5556,0
2013-08-28 1:3:16,56.6038,0
2013-08-28 1:3:17,60.6061,0
2013-08-28 1:3:18,56.6038,0
2013-08-28 1:3:19,56.6038,0
2013-08-28 1:3:20,60,0
2013-08-28 1:3:21,58.8235,0
2013-08-28 1:3:22,60,0
2013-08-28 1:3:23,65.2174,0
2013-08-28 1:3:24,65.2174,0
2013-08-28 1:3:25,62.5,0
2013-08-28 1:3:26,61.2245,0
2013-08-28 1:3:27,60.6061,0
2013-08-28 1:3:28,55.5556,0
2013-08-28 1:3:29,57.1429,0
2013-08-28 1:3:30,57.6923,0
2013-08-28 1:3:31,50.8475,0
2013-08-28 1:3:32,52.6316,0
2013-08-28 1:3:33,59.4059,0
2013-08-28 1:3:34,54.5455,0
2013-08-28 1:3:35,57.6923,0
2013-08-28 1:3:36,63.1579,0
2013-08-28 1:3:37,59.4059,0
2013-08-28 1:3:40,71.4286,1
2013-08-28 1:3:41,70.5882,0
2013-08-28 1:3:42,73.1707,0
2013-08-28 1:3:42,75,0
2013-08-28 1:3:45,77.9221,1
2013-08-28 1:3:46,70.5882,0
2013-08-28 1:3:46,69.7674,0
2013-08-28 1:3:47,63.1579,0
2013-08-28 1:3:49,56.0748,1
2013-08-28 1:3:52,58.8235,1
2013-08-28 1:3:53,60.6061,0
2013-08-28 1:3:54,57.1429,0
2013-08-28 1:3:55,58.2524,0
2013-08-28 1:3:56,62.5,0
2013-08-28 1:3:57,60,0
2013-08-28 1:3:58,57.1429,0
2013-08-28 1:3:59,65.2174,0
2013-08-28 1:4:0,67.4157,0
2013-08-28 1:4:0,60,0
2013-08-28 1:4:1,58.2524,0
2013-08-28 1:4:2,65.2174,0
2013-08-28 1:4:3,64.5161,0
2013-08-28 1:4:4,55.0459,0
2013-08-28 1:4:5,58.8235,0
2013-08-28 1:4:6,61.2245,0
2013-08-28 1:4:7,56.0748,0
2013-08-28 1:4:8,54.5455,0
2013-08-28 1:4:10,60,0
2013-08-28 1:4:11,62.5,0
2013-08-28 1:4:12,54.5455,0
2013-08-28 1:4:13,57.6923,0
2013-08-28 1:4:14,59.4059,0
2013-08-28 1:4:15,54.0541,0
2013-08-28 1:4:16,53.5714,0
2013-08-28 1:4:17,55.5556,0
2013-08-28 1:4:18,55.5556,0
2013-08-28 1:4:19,51.2821,0
2013-08-28 1:4:20,55.0459,0
2013-08-28 1:4:21,50.4202,0
2013-08-28 1:4:23,57.1429,0
2013-08-28 1:4:28,68.9655,1
2013-08-28 1:4:29,71.4286,0
2013-08-28 1:4:29,73.1707,0
2013-08-28 1:4:30,75.9494,0
2013-08-28 1:4:31,68.1818,0
2013-08-28 1:4:32,69.7674,0
2013-08-28 1:4:33,67.4157,0
2013-08-28 1:4:35,57.1429,1
2013-08-28 1:4:36,59.4059,0
2013-08-28 1:4:37,55.5556,0
2013-08-28 1:4:38,58.2524,0
2013-08-28 1:4:39,57.6923,0
2013-08-28 1:4:40,55.0459,0
2013-08-28 1:4:41,60.6061,0
2013-08-28 1:4:42,64.5161,0
2013-08-28 1:4:43,61.2245,0
2013-08-28 1:4:44,56.6038,0
2013-08-28 1:4:45,61.8557,0
2013-08-28 1:4:46,62.5,0
2013-08-28 1:4:47,60.6061,0
2013-08-28 1:4:48,60.6061,0
2013-08-28 1:4:49,65.9341,0
2013-08-28 1:4:50,65.2174,0
2013-08-28 1:4:51,61.2245,0
2013-08-28 1:4:52,61.8557,0
2013-08-28 1:4:53,63.8298,0
2013-08-28 1:4:54,58.2524,0
2013-08-28 1:4:55,59.4059,0
2013-08-28 1:4:56,62.5,0
2013-08-28 1:4:57,59.4059,0
2013-08-28 1:4:58,57.6923,0
2013-08-28 1:4:59,59.4059,0
2013-08-28 1:5:0,58.8235,0
2013-08-28 1:5:1,52.6316,0
2013-08-28 1:5:2,54.0541,0
2013-08-28 1:5:3,58.8235,0
2013-08-28 1:5:4,50.4202,0
2013-08-28 1:5:5,56.0748,0
2013-08-28 1:5:6,58.8235,0
2013-08-28 1:5:7,57.6923,0
2013-08-28 1:5:8,67.4157,0
2013-08-28 1:5:13,63.8298,1
2013-08-28 1:5:14,66.6667,0
2013-08-28 1:5:15,71.4286,0
2013-08-28 1:5:16,61.8557,0
2013-08-28 1:5:17,61.2245,0
2013-08-28 1:5:18,67.4157,0
2013-08-28 1:5:19,61.8557,0
2013-08-28 1:5:20,58.8235,0
2013-08-28 1:5:21,62.5,0
2013-08-28 1:5:22,61.2245,0
2013-08-28 1:5:23,54.5455,0
2013-08-28 1:5:24,59.4059,0
2013-08-28 1:5:25,53.5714,0
2013-08-28 1:5:26,57.1429,0
2013-08-28 1:5:27,61.2245,0
2013-08-28 1:5:28,56.6038,0
2013-08-28 1:5:29,55.5556,0
2013-08-28 1:5:30,59.4059,0
2013-08-28 1:5:31,54.0541,0
2013-08-28 1:5:32,56.6038,0
2013-08-28 1:5:33,59.4059,0
2013-08-28 1:5:34,58.2524,0
2013-08-28 1:5:35,61.2245,0
2013-08-28 1:5:36,63.1579,0
2013-08-28 1:5:37,57.1429,0
2013-08-28 1:5:38,55.5556,0
2013-08-28 1:5:39,58.2524,0
2013-08-28 1:5:40,50.8475,0
2013-08-28 1:5:41,50.4202,0
2013-08-28 1:5:43,56.0748,0
2013-08-28 1:5:44,52.6316,0
2013-08-28 1:5:45,51.2821,0
2013-08-28 1:5:46,54.5455,0
2013-08-28 1:5:47,51.7241,0
2013-08-28 1:5:48,54.0541,0
2013-08-28 1:5:49,56.6038,0
2013-08-28 1:5:50,53.5714,0
2013-08-28 1:5:52,52.1739,0
2013-08-28 1:5:53,55.5556,0
2013-08-28 1:5:54,54.0541,0
2013-08-28 1:5:55,56.6038,0
2013-08-28 1:5:56,54.5455,0
2013-08-28 1:5:57,52.1739,0
2013-08-28 1:5:58,53.0973,0
2013-08-28 1:5:59,51.2821,0
2013-08-28 1:6:1,50,0
2013-08-28 1:6:2,50,0
2013-08-28 1:6:3,52.6316,0
2013-08-28 1:6:4,52.1739,0
2013-08-28 1:6:5,52.6316,0
2013-08-28 1:6:6,58.8235,0
2013-08-28 1:6:7,60.6061,0
2013-08-28 1:6:12,59.4059,1
2013-08-28 1:6:13,63.1579,0
2013-08-28 1:6:14,64.5161,0
2013-08-28 1:6:17,69.7674,1
2013-08-28 1:6:17,69.7674,0
2013-08-28 1:6:18,66.6667,0
2013-08-28 1:6:19,61.2245,0
2013-08-28 1:6:20,64.5161,0
2013-08-28 1:6:21,62.5,0
2013-08-28 1:6:22,60.6061,0
2013-08-28 1:6:23,63.8298,0
2013-08-28 1:6:24,65.2174,0
2013-08-28 1:6:25,62.5,0
2013-08-28 1:6:26,63.1579,0
2013-08-28 1:6:27,66.6667,0
2013-08-28 1:6:28,66.6667,0
2013-08-28 1:6:29,66.6667,0
2013-08-28 1:6:30,67.4157,0
2013-08-28 1:6:30,68.1818,0
2013-08-28 1:6:31,63.1579,0
2013-08-28 1:6:32,60.6061,0
2013-08-28 1:6:33,64.5161,0
2013-08-28 1:6:34,69.7674,0
2013-08-28 1:6:35,72.2892,0
2013-08-28 1:6:37,75,1
2013-08-28 1:6:39,67.4157,1
2013-08-28 1:6:40,65.9341,0
2013-08-28 1:6:41,63.8298,0
2013-08-28 1:6:42,67.4157,0
2013-08-28 1:6:43,63.8298,0
2013-08-28 1:6:44,67.4157,0
2013-08-28 1:6:45,63.1579,0
2013-08-28 1:6:46,56.0748,0
2013-08-28 1:6:47,60,0
2013-08-28 1:6:48,56.0748,0
2013-08-28 1:6:50,52.1739,1
2013-08-28 1:6:51,54.5455,0
2013-08-28 1:6:52,54.0541,0
2013-08-28 1:6:53,59.4059,0
2013-08-28 1:6:54,61.2245,0
2013-08-28 1:6:55,57.6923,0
2013-08-28 1:6:56,57.1429,0
2013-08-28 1:6:57,61.2245,0
2013-08-28 1:6:58,57.6923,0
2013-08-28 1:6:59,51.2821,0
2013-08-28 1:7:1,54.0541,0
2013-08-28 1:7:2,52.1739,0
2013-08-28 1:7:3,50,0
2013-08-28 1:7:4,55.0459,0
2013-08-28 1:7:5,62.5,0
2013-08-28 1:7:6,66.6667,0
2013-08-28 1:7:9,69.7674,1
2013-08-28 1:7:12,76.9231,1
2013-08-28 1:7:13,75,0
2013-08-28 1:7:14,75.9494,0
2013-08-28 1:7:15,72.2892,0
2013-08-28 1:7:16,68.1818,0
2013-08-28 1:7:19,61.8557,1
2013-08-28 1:7:21,54.0541,1
2013-08-28 1:7:22,58.2524,0
2013-08-28 1:7:23,56.6038,0
2013-08-28 1:7:24,60,0
2013-08-28 1:7:25,64.5161,0
2013-08-28 1:7:26,62.5,0
2013-08-28 1:7:27,60,0
2013-08-28 1:7:28,65.2174,0
2013-08-28 1:7:29,65.9341,0
2013-08-28 1:7:30,66.6667,0
2013-08-28 1:7:31,63.8298,0
2013-08-28 1:7:32,65.9341,0
2013-08-28 1:7:33,63.1579,0
2013-08-28 1:7:33,61.2245,0
2013-08-28 1:7:34,61.2245,0
2013-08-28 1:7:35,58.8235,0
2013-08-28 1:7:36,53.0973,0
2013-08-28 1:7:38,61.2245,0
2013-08-28 1:7:39,57.6923,0
2013-08-28 1:7:40,57.6923,0
2013-08-28 1:7:41,59.4059,0
2013-08-28 1:7:42,54.5455,0
2013-08-28 1:7:43,50.4202,0
2013-08-28 1:7:44,51.2821,0
2013-08-28 1:7:45,50,0
2013-08-28 1:7:46,51.7241,0
2013-08-28 1:7:47,55.0459,0
2013-08-28 1:7:49,55.5556,0
2013-08-28 1:7:50,60,0
2013-08-28 1:7:51,61.8557,0
2013-08-28 1:7:52,68.1818,0
2013-08-28 1:7:56,75,1
2013-08-28 1:7:56,75.9494,0
2013-08-28 1:8:0,78.9474,1
2013-08-28 1:8:0,75.9494,0
2013-08-28 1:8:1,75,0
2013-08-28 1:8:2,69.7674,0
2013-08-28 1:8:3,72.2892,0
2013-08-28 1:8:4,68.9655,0
2013-08-28 1:8:7,60.6061,1
2013-08-28 1:8:9,57.6923,1
2013-08-28 1:8:10,61.8557,0
2013-08-28 1:8:11,61.2245,0
2013-08-28 1:8:12,57.1429,0
2013-08-28 1:8:13,60.6061,0
2013-08-28 1:8:14,59.4059,0
2013-08-28 1:8:15,55.5556,0
2013-08-28 1:8:16,56.0748,0
2013-08-28 1:8:17,60.6061,0
2013-08-28 1:8:18,61.2245,0
2013-08-28 1:8:19,54.0541,0
2013-08-28 1:8:20,55.5556,0
2013-08-28 1:8:21,60,0
2013-08-28 1:8:22,57.6923,0
2013-08-28 1:8:23,55.5556,0
2013-08-28 1:8:24,56.6038,0
2013-08-28 1:8:25,56.0748,0
2013-08-28 1:8:26,52.1739,0
2013-08-28 1:8:27,55.0459,0
2013-08-28 1:8:28,55.5556,0
2013-08-28 1:8:30,54.5455,0
2013-08-28 1:8:31,56.0748,0
2013-08-28 1:8:32,56.6038,0
2013-08-28 1:8:33,53.5714,0
2013-08-28 1:8:34,54.5455,0
2013-08-28 1:8:35,53.5714,0
2013-08-28 1:8:36,48.7805,0
2013-08-28 1:8:37,55.0459,0
2013-08-28 1:8:38,50,0
2013-08-28 1:8:40,50.8475,0
2013-08-28 1:8:41,52.1739,0
2013-08-28 1:8:42,45.1128,0
2013-08-28 1:8:43,45.4545,0
2013-08-28 1:8:45,44.4444,0
2013-08-28 1:8:46,48.7805,0
2013-08-28 1:8:47,48,0
2013-08-28 1:8:48,42.8571,0
2013-08-28 1:8:50,47.2441,0
2013-08-28 1:8:51,45.4545,0
2013-08-28 1:8:52,48.7805,0
2013-08-28 1:8:54,52.1739,0
2013-08-28 1:8:55,60,0
2013-08-28 1:9:5,82.1918,1
2013-08-28 1:9:11,65.2174,1
2013-08-28 1:9:12,63.8298,0
2013-08-28 1:9:14,56.0748,1
2013-08-28 1:9:15,58.2524,0
2013-08-28 1:9:16,54.0541,0
2013-08-28 1:9:17,56.6038,0
2013-08-28 1:9:18,61.2245,0
2013-08-28 1:9:19,55.5556,0
2013-08-28 1:9:21,57.6923,0
2013-08-28 1:9:22,61.2245,0
2013-08-28 1:9:23,56.6038,0
2013-08-28 1:9:24,58.8235,0
2013-08-28 1:9:25,60,0
2013-08-28 1:9:26,57.1429,0
2013-08-28 1:9:27,56.0748,0
2013-08-28 1:9:28,59.4059,0
2013-08-28 1:9:29,50.4202,0
2013-08-28 1:9:30,54.5455,0
2013-08-28 1:9:31,60.6061,0
2013-08-28 1:9:32,56.0748,0
2013-08-28 1:9:33,50.4202,0
2013-08-28 1:9:34,54.0541,0
2013-08-28 1:9:35,46.875,0
2013-08-28 1:9:37,47.619,0
2013-08-28 1:9:39,44.1176,1
2013-08-28 1:9:41,46.1538,0
2013-08-28 1:9:42,48.3871,0
2013-08-28 1:9:43,50.8475,0
2013-08-28 1:9:44,50,0
2013-08-28 1:9:46,48.7805,0
2013-08-28 1:9:47,50.8475,0
2013-08-28 1:9:48,48.7805,0
2013-08-28 1:9:49,45.4545,0
2013-08-28 1:9:51,44.7761,0
2013-08-28 1:9:52,52.1739,0
2013-08-28 1:9:53,57.1429,0
2013-08-28 1:9:59,74.0741,1
2013-08-28 1:10:0,72.2892,0
2013-08-28 1:10:1,73.1707,0
2013-08-28 1:10:2,75.9494,0
2013-08-28 1:10:3,76.9231,0
2013-08-28 1:10:3,78.9474,0
2013-08-28 1:10:4,80,0
2013-08-28 1:10:5,81.0811,0
2013-08-28 1:10:6,81.0811,0
2013-08-28 1:10:6,82.1918,0
2013-08-28 1:10:7,84.507,0
2013-08-28 1:10:8,83.3333,0
2013-08-28 1:10:8,81.0811,0
2013-08-28 1:10:9,75.9494,0
2013-08-28 1:10:11,69.7674,1
2013-08-28 1:10:12,70.5882,0
2013-08-28 1:10:15,66.6667,1
2013-08-28 1:10:16,65.9341,0
2013-08-28 1:10:17,61.2245,1
2013-08-28 1:10:18,64.5161,0
2013-08-28 1:10:19,63.1579,0
2013-08-28 1:10:20,60.6061,0
2013-08-28 1:10:21,60,0
2013-08-28 1:10:22,57.6923,0
2013-08-28 1:10:23,55.5556,0
2013-08-28 1:10:24,60,0
2013-08-28 1:10:25,56.6038,0
2013-08-28 1:10:26,59.4059,0
2013-08-28 1:10:27,62.5,0
2013-08-28 1:10:28,57.1429,0
2013-08-28 1:10:29,55.5556,0
2013-08-28 1:10:31,56.6038,0
2013-08-28 1:10:32,53.0973,0
2013-08-28 1:10:33,53.0973,0
2013-08-28 1:10:34,54.5455,0
2013-08-28 1:10:35,55.0459,0
2013-08-28 1:10:36,57.6923,0
2013-08-28 1:10:37,58.8235,0
2013-08-28 1:10:38,59.4059,0
2013-08-28 1:10:39,56.0748,0
2013-08-28 1:10:40,60,0
2013-08-28 1:10:41,56.6038,0
2013-08-28 1:10:42,51.2821,0
2013-08-28 1:10:43,50,0
2013-08-28 1:10:45,49.5868,0
2013-08-28 1:10:46,46.1538,0
2013-08-28 1:10:47,47.619,0
2013-08-28 1:10:48,48,0
2013-08-28 1:10:50,48,0
2013-08-28 1:10:51,48.3871,0
2013-08-28 1:10:52,50.4202,0
2013-08-28 1:10:53,45.8015,0
2013-08-28 1:10:55,44.4444,0
2013-08-28 1:10:56,42.8571,0
2013-08-28 1:10:57,44.1176,0
2013-08-28 1:10:59,39.7351,0
2013-08-28 1:11:0,46.1538,0
2013-08-28 1:11:2,53.0973,0
2013-08-28 1:11:10,66.6667,1
2013-08-28 1:11:11,69.7674,0
2013-08-28 1:11:12,70.5882,0
2013-08-28 1:11:12,68.1818,0
2013-08-28 1:11:13,68.1818,0
2013-08-28 1:11:14,71.4286,0
2013-08-28 1:11:15,71.4286,0
2013-08-28 1:11:16,73.1707,0
2013-08-28 1:11:17,75,0
2013-08-28 1:11:17,75.9494,0
2013-08-28 1:11:18,75.9494,0
2013-08-28 1:11:19,76.9231,0
2013-08-28 1:11:20,77.9221,0
2013-08-28 1:11:21,76.9231,0
2013-08-28 1:11:21,78.9474,0
2013-08-28 1:11:22,78.9474,0
2013-08-28 1:11:23,78.9474,0
2013-08-28 1:11:28,58.8235,1
2013-08-28 1:11:29,58.8235,0
2013-08-28 1:11:30,61.8557,0
2013-08-28 1:11:31,60.6061,0
2013-08-28 1:11:34,52.1739,1
2013-08-28 1:11:37,50.8475,1
2013-08-28 1:11:38,51.7241,0
2013-08-28 1:11:39,51.7241,0
2013-08-28 1:11:40,52.6316,0
2013-08-28 1:11:41,51.2821,0
2013-08-28 1:11:42,49.1803,0
2013-08-28 1:11:44,45.4545,0
2013-08-28 1:11:45,46.5116,0
2013-08-28 1:11:46,45.4545,0
2013-08-28 1:11:48,45.8015,0
2013-08-28 1:11:49,55.5556,0
2013-08-28 1:11:50,57.6923,0
2013-08-28 1:11:51,53.0973,0
2013-08-28 1:11:52,48.3871,0
2013-08-28 1:11:53,45.8015,0
2013-08-28 1:11:55,48,0
2013-08-28 1:11:56,49.1803,0
2013-08-28 1:11:57,51.7241,0
2013-08-28 1:11:58,44.7761,0
2013-08-28 1:12:0,47.619,0
2013-08-28 1:12:1,44.1176,0
2013-08-28 1:12:2,50,0
2013-08-28 1:12:3,47.2441,0
2013-08-28 1:12:5,48,0
2013-08-28 1:12:6,46.5116,0
2013-08-28 1:12:7,48,0
2013-08-28 1:12:9,42.8571,0
2013-08-28 1:12:10,48.3871,0
2013-08-28 1:12:11,45.4545,0
2013-08-28 1:12:12,49.1803,0
2013-08-28 1:12:14,45.8015,0
2013-08-28 1:12:15,43.4783,0
2013-08-28 1:12:16,46.5116,0
2013-08-28 1:12:18,41.958,0
2013-08-28 1:12:19,45.8015,0
2013-08-28 1:12:20,45.8015,0
2013-08-28 1:12:22,46.1538,0
2013-08-28 1:12:23,50,0
2013-08-28 1:12:32,88.2353,1
2013-08-28 1:12:33,89.5522,0
2013-08-28 1:12:34,83.3333,0
2013-08-28 1:12:35,83.3333,0
2013-08-28 1:12:35,80,0
2013-08-28 1:12:36,78.9474,0
2013-08-28 1:12:37,80,0
2013-08-28 1:12:38,78.9474,0
2013-08-28 1:12:38,73.1707,0
2013-08-28 1:12:41,67.4157,1
2013-08-28 1:12:42,68.1818,0
2013-08-28 1:12:43,64.5161,0
2013-08-28 1:12:44,63.8298,0
2013-08-28 1:12:45,63.8298,0
2013-08-28 1:12:47,60.6061,1
2013-08-28 1:12:48,63.8298,0
2013-08-28 1:12:51,55.0459,1
2013-08-28 1:12:53,56.0748,1
2013-08-28 1:12:54,54.5455,0
2013-08-28 1:12:57,51.7241,1
2013-08-28 1:12:58,50,0
2013-08-28 1:12:59,55.0459,0
2013-08-28 1:13:0,49.5868,0
2013-08-28 1:13:1,55.0459,0
2013-08-28 1:13:2,50.4202,0
2013-08-28 1:13:3,52.6316,0
2013-08-28 1:13:5,46.875,0
2013-08-28 1:13:6,48.3871,0
2013-08-28 1:13:7,44.4444,0
2013-08-28 1:13:8,46.875,0
2013-08-28 1:13:10,46.1538,0
2013-08-28 1:13:11,48.7805,0
2013-08-28 1:13:12,48,0
2013-08-28 1:13:14,45.4545,0
2013-08-28 1:13:15,54.0541,0
2013-08-28 1:13:22,76.9231,1
2013-08-28 1:13:23,77.9221,0
2013-08-28 1:13:23,78.9474,0
2013-08-28 1:13:26,83.3333,1
2013-08-28 1:13:32,56.6038,1
2013-08-28 1:13:34,57.6923,1
2013-08-28 1:13:35,55.5556,0
2013-08-28 1:13:36,57.6923,0
2013-08-28 1:13:37,55.0459,0
2013-08-28 1:13:38,52.6316,0
2013-08-28 1:13:39,58.2524,0
2013-08-28 1:13:40,56.0748,0
2013-08-28 1:13:41,51.7241,0
2013-08-28 1:13:43,53.0973,0
2013-08-28 1:13:44,50.8475,0
2013-08-28 1:13:45,54.0541,0
2013-08-28 1:13:46,51.2821,0
2013-08-28 1:13:47,53.5714,0
2013-08-28 1:13:48,52.1739,0
2013-08-28 1:13:49,54.0541,0
2013-08-28 1:13:51,51.7241,0
2013-08-28 1:13:52,53.5714,0
2013-08-28 1:13:53,52.1739,0
2013-08-28 1:13:54,52.6316,0
2013-08-28 1:13:55,50,0
2013-08-28 1:13:56,50,0
2013-08-28 1:13:58,50.4202,0
2013-08-28 1:13:59,49.5868,0
2013-08-28 1:14:0,48.7805,0
2013-08-28 1:14:1,48.3871,0
2013-08-28 1:14:2,50,0
2013-08-28 1:14:4,51.7241,0
2013-08-28 1:14:5,49.1803,0
2013-08-28 1:14:6,49.1803,0
2013-08-28 1:14:7,45.4545,0
2013-08-28 1:14:9,46.875,0
2013-08-28 1:14:10,48.3871,0
2013-08-28 1:14:11,48.7805,0
2013-08-28 1:14:12,46.1538,0
2013-08-28 1:14:14,46.1538,0
2013-08-28 1:14:15,46.1538,0
2013-08-28 1:14:16,48,0
2013-08-28 1:14:17,47.619,0
2013-08-28 1:14:19,47.2441,0
2013-08-28 1:14:20,48,0
2013-08-28 1:14:21,46.875,0
2013-08-28 1:14:28,73.1707,1
2013-08-28 1:14:29,75,0
2013-08-28 1:14:30,74.0741,0
2013-08-28 1:14:31,69.7674,0
2013-08-28 1:14:32,68.1818,0
2013-08-28 1:14:33,70.5882,0
2013-08-28 1:14:34,71.4286,0
2013-08-28 1:14:34,69.7674,0
2013-08-28 1:14:35,72.2892,0
2013-08-28 1:14:36,74.0741,0
2013-08-28 1:14:37,72.2892,0
2013-08-28 1:14:38,71.4286,0
2013-08-28 1:14:39,72.2892,0
2013-08-28 1:14:39,73.1707,0
2013-08-28 1:14:40,68.1818,0
2013-08-28 1:14:41,71.4286,0
2013-08-28 1:14:42,68.1818,0
2013-08-28 1:14:43,69.7674,0
2013-08-28 1:14:44,71.4286,0
2013-08-28 1:14:44,68.1818,0
2013-08-28 1:14:45,72.2892,0
2013-08-28 1:14:46,71.4286,0
2013-08-28 1:14:47,70.5882,0
2013-08-28 1:14:48,72.2892,0
2013-08-28 1:14:49,71.4286,0
2013-08-28 1:14:50,73.1707,0
2013-08-28 1:14:50,75,0
2013-08-28 1:14:51,75,0
2013-08-28 1:14:52,75.9494,0
2013-08-28 1:14:53,75,0
2013-08-28 1:14:54,76.9231,0
2013-08-28 1:14:54,76.9231,0
2013-08-28 1:14:55,77.9221,0
2013-08-28 1:14:56,78.9474,0
2013-08-28 1:14:57,83.3333,0
2013-08-28 1:14:57,84.507,0
2013-08-28 1:14:58,86.9565,0
2013-08-28 1:14:59,88.2353,0
2013-08-28 1:14:59,84.507,0
2013-08-28 1:15:8,56.0748,1
2013-08-28 1:15:12,51.7241,1
2013-08-28 1:15:13,49.5868,0
2013-08-28 1:15:15,48.7805,0
2013-08-28 1:15:16,48.7805,0
2013-08-28 1:15:17,48.7805,0
2013-08-28 1:15:18,49.1803,0
2013-08-28 1:15:20,48.7805,0
2013-08-28 1:15:21,50,0
2013-08-28 1:15:22,48.3871,0
2013-08-28 1:15:23,50,0
2013-08-28 1:15:24,48,0
2013-08-28 1:15:26,43.4783,0
2013-08-28 1:15:27,46.5116,0
2013-08-28 1:15:28,47.619,0
2013-08-28 1:15:30,45.4545,0
2013-08-28 1:15:31,45.8015,0
2013-08-28 1:15:32,44.7761,0
2013-08-28 1:15:34,47.2441,0
2013-08-28 1:15:35,49.1803,0
2013-08-28 1:15:36,48.7805,0
2013-08-28 1:15:37,48,0
2013-08-28 1:15:39,49.5868,0
2013-08-28 1:15:40,55.0459,0
